-1 -1 -1 -1 -1 -1 -1 -1 -1 -1 -1 -1 -1 -1 -1 -1 -1 -1 -1 -1 -1 -1 -1 -1 -1 -1 -1 -1 -1 -1 -1 -1 -1 -1 -1 -1 -1 -1 -1 -1 -1 -1 -1 -1 -1 -1 -1 -1 -1 -1 -1 -1 -1 -1 -1 -1 -1 -1 -1 -1 -1 -1 -1 -1 -1 -1 -1 -1 -1 -1 -1 -1 -1 -1 -1 -1 -1 -1 -1 -1 -1 -1 -1 -1 -1 -1 -1 -1 -1 -1 -1 -1 -1 -1 -1 -1 -1 -1 -1 -1 
6 164 113 72 198 185 159 153 138 120 114 46 181 187 53 112 109 14 7 23 158 152 49 27 3 139 2 142 132 0 57 22 78 196 69 107 24 79 119 188 17 89 87 170 123 150 161 116 68 20 60 30 199 190 5 64 166 147 179 81 172 140 129 76 168 178 117 141 125 74 167 16 173 34 73 31 42 37 50 174 148 91 169 100 39 156 162 82 105 92 192 52 195 55 134 41 12 15 63 99 
83 56 27 96 120 181 49 72 155 44 7 138 198 2 46 165 84 43 175 157 53 184 88 114 185 19 65 128 14 86 47 1 121 39 30 17 50 89 22 111 100 119 40 105 37 69 122 41 60 148 145 166 74 178 106 52 150 54 82 8 134 55 167 143 194 94 189 9 5 20 176 16 103 182 31 183 107 116 24 11 174 147 168 45 21 117 141 173 76 180 125 188 190 195 131 162 67 78 149 124 
43 197 6 97 83 164 181 72 27 18 3 84 2 93 128 56 47 57 187 49 185 0 46 139 138 132 126 151 163 160 14 33 107 131 70 99 66 177 194 40 38 41 111 80 135 140 108 119 59 89 45 92 171 17 68 189 172 182 13 63 137 148 166 42 102 62 180 130 76 196 79 54 15 122 22 95 179 36 98 94 105 101 162 12 147 145 161 26 48 193 5 58 1 129 30 141 16 34 25 87 
133 138 165 160 155 57 96 158 19 154 53 128 113 72 23 90 184 0 175 2 120 85 56 104 187 164 27 93 191 185 126 145 149 70 140 107 178 102 15 174 115 123 37 189 99 25 20 41 54 169 170 199 125 135 166 101 146 51 4 95 105 75 79 108 137 28 73 66 67 26 98 17 106 183 74 76 78 62 30 94 50 11 69 82 150 103 87 129 196 173 144 192 71 42 194 130 48 131 124 100 
83 88 118 2 138 96 132 128 159 142 151 0 61 97 186 181 84 86 53 93 197 85 157 163 65 154 152 46 3 139 198 26 66 192 69 182 80 11 76 125 78 37 22 79 95 122 166 32 173 124 16 39 81 55 119 63 12 174 180 193 29 141 189 30 71 111 140 106 170 50 167 169 13 102 147 34 36 45 10 143 146 42 9 4 194 67 130 99 38 168 199 51 17 15 135 188 91 148 20 144 
110 18 113 184 72 133 164 49 85 126 181 138 61 191 132 57 175 6 157 153 65 165 23 88 112 44 120 47 187 96 118 73 180 129 169 173 29 146 89 121 124 94 54 100 125 102 82 50 60 62 150 167 192 67 183 5 68 48 101 143 80 135 166 16 69 141 189 105 26 11 92 144 71 66 59 77 149 115 176 81 78 172 91 9 170 58 30 55 41 33 193 136 10 22 45 199 52 64 74 119 
23 159 112 65 118 19 90 153 197 46 93 7 14 86 186 56 155 139 152 113 35 191 97 175 84 142 88 157 3 164 2 119 188 73 1 50 123 179 11 193 173 32 103 38 9 8 31 91 167 124 136 130 101 166 64 156 95 141 99 82 178 54 25 195 171 68 75 122 92 63 169 36 12 60 70 131 176 134 30 161 148 143 59 107 21 116 177 58 189 17 144 102 39 145 149 78 106 140 125 135 
118 186 152 88 112 90 47 151 197 181 132 23 155 159 154 83 93 86 35 109 185 65 126 133 113 163 56 160 72 53 61 100 15 77 162 42 9 102 29 37 75 38 58 55 123 131 135 1 52 199 136 193 127 182 119 24 66 63 10 107 176 30 146 183 12 33 13 130 121 173 20 169 91 143 103 166 81 101 59 149 71 106 39 40 124 148 54 11 178 31 170 129 190 168 78 80 34 26 69 167 
160 7 185 27 157 159 90 118 110 142 165 44 155 46 191 84 83 151 23 19 186 61 133 126 138 164 187 139 3 49 35 4 16 17 147 38 80 75 117 137 182 76 34 33 24 176 190 40 50 41 121 48 30 145 115 32 150 25 171 119 69 94 10 183 192 144 55 143 60 39 22 66 13 146 87 29 68 194 162 134 101 168 54 149 99 125 166 12 8 123 20 45 188 170 28 11 77 179 79 64 
158 65 151 96 2 0 160 113 43 3 118 126 84 110 159 27 19 163 175 47 186 152 132 138 86 56 23 164 72 155 120 54 66 82 127 117 102 195 108 78 9 45 178 105 129 107 136 125 40 103 15 51 172 194 70 8 28 111 26 148 145 161 141 73 188 22 30 106 71 1 177 36 12 166 55 33 24 63 144 193 48 92 131 156 162 168 34 64 91 99 98 135 173 167 179 169 147 42 137 134 
53 35 23 86 0 175 109 165 7 18 138 181 43 152 185 19 2 197 153 164 85 112 128 118 126 104 57 44 157 27 198 38 143 28 4 127 180 55 135 147 50 77 174 173 172 54 122 156 20 176 24 169 69 52 123 68 117 177 193 105 37 26 63 134 31 34 87 62 146 183 15 17 161 106 199 32 92 94 194 168 71 121 76 5 10 188 111 9 116 39 115 129 190 131 42 66 178 100 58 13 
133 49 93 72 120 19 158 35 14 97 197 184 157 46 128 152 126 3 142 160 23 165 110 175 7 84 85 164 114 65 187 193 183 50 188 34 92 190 17 125 182 51 176 174 12 38 122 71 161 58 98 111 28 89 59 99 143 91 156 169 115 127 137 67 21 105 54 74 79 148 30 135 180 107 31 117 40 5 64 116 36 81 15 76 10 4 130 144 1 55 123 82 146 48 103 69 150 9 26 70 
197 155 72 120 19 18 43 160 109 85 157 57 184 126 97 142 0 138 185 46 154 191 6 47 187 86 128 88 114 90 152 25 99 20 22 199 108 81 87 50 5 134 190 45 39 9 42 74 172 127 33 31 71 176 8 135 34 117 168 180 69 122 66 98 13 62 91 147 101 67 76 150 11 189 174 24 196 194 167 183 130 78 146 105 148 107 30 82 55 37 59 40 140 17 77 89 125 32 38 28 
53 187 97 164 165 138 158 118 139 154 72 6 14 197 142 61 155 93 132 120 19 151 85 56 23 83 49 43 109 47 104 123 137 76 134 67 13 45 189 188 180 156 162 58 54 51 82 22 116 100 178 77 108 136 131 140 144 129 94 196 92 190 73 26 117 29 179 81 161 192 25 99 149 36 20 148 173 95 16 166 37 9 130 102 105 39 119 182 60 79 145 127 103 106 63 111 146 5 98 21 
164 187 110 56 153 114 104 83 18 19 6 109 152 142 191 47 43 65 185 0 128 57 2 23 163 85 86 157 138 72 84 9 22 36 192 67 55 106 196 137 68 131 41 189 60 107 50 33 42 105 87 48 169 38 102 94 63 168 122 98 127 80 20 15 74 64 62 45 24 170 172 177 188 25 145 130 167 75 166 78 146 143 4 81 21 95 195 16 162 70 119 40 115 79 123 51 71 141 13 73 
184 23 97 160 57 113 153 159 138 18 43 198 197 186 112 53 191 109 120 96 3 110 19 86 164 118 93 165 152 158 46 10 137 68 177 1 11 41 91 73 169 179 82 162 89 170 167 180 31 37 196 134 140 4 145 24 190 80 122 182 178 48 74 66 28 29 64 12 75 71 183 193 17 168 106 50 94 95 115 8 16 54 108 63 161 149 166 30 101 34 59 25 45 76 33 119 15 62 144 55 
88 155 120 35 191 65 160 159 132 23 46 14 154 85 3 72 57 86 44 184 181 84 164 19 109 110 187 56 139 186 157 156 91 60 54 179 107 5 33 146 125 24 102 29 170 180 64 193 42 103 4 34 20 148 182 123 117 161 79 51 13 199 63 116 99 115 130 87 172 143 9 196 177 169 70 189 101 150 145 166 50 119 111 137 21 136 30 183 176 81 168 67 195 41 194 147 59 105 10 52 
157 113 185 83 155 197 118 88 160 158 138 153 104 35 152 175 142 112 198 133 110 109 120 27 90 114 181 57 139 53 0 199 76 89 148 63 188 92 25 36 190 78 106 179 33 67 1 125 169 77 195 99 189 111 13 64 29 38 30 10 9 103 12 34 105 32 108 193 194 147 55 31 16 171 15 91 143 62 4 161 137 20 174 60 73 8 74 82 45 107 123 176 70 121 162 50 21 116 119 42 
126 157 6 186 72 142 152 57 2 112 114 61 175 85 7 43 118 197 65 151 184 113 47 138 154 160 164 165 153 84 159 167 59 11 119 17 176 193 9 78 149 137 5 134 76 179 28 150 37 71 25 74 172 60 108 171 81 131 98 195 48 105 141 26 156 188 22 169 75 103 106 189 190 33 178 51 100 45 140 99 55 174 180 111 64 123 136 29 115 52 8 70 15 24 177 192 66 34 107 1 
157 133 19 83 23 120 53 2 153 46 152 191 197 61 47 112 3 109 118 142 18 88 104 114 139 128 85 175 90 6 132 100 150 48 68 146 135 190 108 64 119 69 122 1 51 124 54 111 45 80 92 188 101 176 89 52 30 94 20 162 130 149 75 140 183 182 71 87 129 180 145 32 137 98 168 77 81 5 76 121 148 195 125 22 39 11 95 193 37 177 13 24 91 36 82 173 4 40 106 60 
197 90 160 114 23 97 191 104 159 164 186 181 19 118 187 112 163 153 138 83 126 7 88 43 113 72 84 49 132 3 0 78 29 107 170 119 117 161 24 36 94 82 25 141 80 62 89 52 1 179 9 194 59 66 122 40 98 147 182 22 69 12 42 111 28 81 70 162 131 108 76 171 195 166 149 71 150 189 173 143 121 51 190 130 87 21 177 64 10 127 135 63 31 129 192 91 45 140 105 16 
175 184 85 23 56 61 84 19 132 191 6 154 113 158 2 104 72 120 185 187 14 197 27 83 198 57 160 181 96 97 186 51 111 147 107 125 193 171 95 74 122 123 62 55 156 167 22 144 9 36 1 81 54 89 38 71 101 21 34 100 137 102 173 172 59 150 67 134 69 168 94 63 16 188 149 42 50 32 31 190 170 52 192 124 80 29 189 92 91 99 76 87 108 195 131 98 148 105 33 180 
152 56 133 46 83 19 118 139 164 7 47 160 185 142 65 110 132 151 186 96 90 109 159 158 93 175 86 53 114 181 57 8 26 21 69 12 32 5 123 100 144 29 105 190 37 17 98 66 102 95 70 174 73 115 1 127 16 101 195 141 62 64 169 31 39 116 121 178 77 149 111 189 15 192 34 41 28 20 124 130 134 171 183 76 92 176 50 60 82 119 42 67 194 68 117 177 51 135 45 63 
187 97 118 160 43 142 133 175 83 96 151 163 152 165 197 23 159 154 57 88 35 164 93 184 72 138 7 3 18 132 112 70 189 10 156 98 119 173 136 177 74 107 9 15 82 1 115 162 33 174 161 140 166 63 24 199 145 76 102 11 28 148 101 91 87 77 66 32 78 75 171 168 116 34 99 45 176 130 16 100 103 51 134 124 129 31 106 69 180 8 64 169 39 79 146 179 121 125 17 22 
185 104 157 128 154 110 160 159 35 43 49 27 126 138 72 14 142 2 118 56 198 88 114 175 65 0 164 112 53 47 90 192 140 146 8 117 103 9 168 105 183 179 188 134 37 70 171 111 173 131 77 135 63 40 20 141 195 48 25 26 11 34 107 102 33 22 156 92 129 123 196 69 13 189 194 41 55 29 17 177 36 15 99 150 98 82 80 71 190 87 182 62 73 51 145 166 32 170 39 74 
155 46 186 43 35 72 49 57 97 160 61 112 153 88 14 197 114 19 187 191 151 139 133 3 2 152 18 6 90 184 159 162 101 78 75 173 111 134 80 148 58 4 26 108 135 34 144 125 130 25 115 81 79 161 170 177 60 48 1 70 146 117 190 189 122 137 121 116 167 100 77 52 71 195 99 76 182 5 94 36 194 123 16 54 131 50 143 178 124 32 41 105 171 59 68 17 89 149 82 69 
57 44 97 191 19 96 133 118 49 72 104 164 61 43 157 93 185 18 142 112 154 6 152 56 85 126 163 3 132 198 181 130 179 101 177 116 161 5 195 21 87 192 42 173 77 20 148 150 121 144 119 94 45 190 95 82 50 55 129 137 134 156 11 131 100 51 66 99 74 29 26 32 172 60 193 48 117 58 36 141 143 106 89 122 136 1 199 68 33 24 123 182 9 140 13 167 38 70 4 127 
157 6 159 165 187 160 114 132 152 164 27 175 19 184 90 65 153 110 142 151 49 3 191 46 47 181 43 109 14 113 0 73 177 33 176 36 63 77 95 26 29 81 42 146 37 147 89 115 62 22 28 179 99 17 182 25 111 87 194 134 148 10 34 50 166 130 196 41 193 150 103 76 71 24 45 38 127 145 117 105 67 91 12 16 64 141 162 21 52 121 171 15 129 92 13 39 178 9 78 137 
18 138 49 198 181 139 53 128 27 159 158 151 6 191 47 184 152 46 175 114 133 2 35 7 164 110 72 0 85 57 153 8 66 106 199 156 63 31 124 22 167 16 34 11 172 103 192 4 81 59 87 62 150 89 68 161 178 180 82 20 75 12 38 80 101 177 54 55 193 51 189 145 13 92 183 169 45 67 134 170 28 108 130 10 30 5 125 174 25 21 131 58 137 9 48 60 119 32 94 37 
