-1 -1 -1 -1 -1 -1 -1 -1 -1 -1 -1 -1 -1 -1 -1 -1 -1 -1 -1 -1 -1 -1 -1 -1 -1 -1 -1 -1 -1 -1 -1 -1 -1 -1 -1 -1 -1 -1 -1 -1 -1 -1 -1 -1 -1 -1 -1 -1 -1 -1 -1 -1 -1 -1 -1 -1 -1 -1 -1 -1 -1 -1 -1 -1 -1 -1 -1 -1 -1 -1 -1 -1 -1 -1 -1 -1 -1 -1 -1 -1 -1 -1 -1 -1 -1 -1 -1 -1 -1 -1 -1 -1 -1 -1 -1 -1 -1 -1 -1 -1 -1 -1 -1 -1 -1 -1 -1 -1 -1 -1 -1 -1 -1 -1 -1 -1 -1 -1 -1 -1 -1 -1 -1 -1 -1 -1 -1 -1 -1 -1 -1 -1 -1 -1 -1 -1 -1 -1 -1 -1 -1 -1 -1 -1 -1 -1 -1 -1 -1 -1 -1 -1 -1 -1 -1 -1 -1 -1 -1 -1 -1 -1 -1 -1 -1 -1 -1 -1 -1 -1 -1 -1 -1 -1 -1 -1 -1 -1 -1 -1 -1 -1 -1 -1 -1 -1 -1 -1 -1 -1 -1 -1 -1 -1 -1 -1 -1 -1 -1 -1 -1 -1 -1 -1 -1 -1 -1 -1 -1 -1 -1 -1 -1 -1 -1 -1 -1 -1 -1 -1 -1 -1 -1 -1 -1 -1 -1 -1 -1 -1 -1 -1 -1 -1 -1 -1 -1 -1 -1 -1 -1 -1 -1 -1 -1 -1 -1 -1 -1 -1 -1 -1 -1 -1 -1 -1 -1 -1 -1 -1 -1 -1 -1 -1 -1 -1 -1 -1 -1 -1 -1 -1 -1 -1 -1 -1 -1 -1 -1 -1 -1 -1 -1 -1 -1 -1 -1 -1 -1 -1 -1 -1 -1 -1 -1 -1 -1 -1 -1 -1 -1 -1 -1 -1 -1 -1 -1 -1 -1 -1 -1 -1 -1 -1 -1 -1 -1 -1 -1 -1 -1 -1 -1 -1 -1 -1 -1 -1 -1 -1 -1 -1 -1 -1 -1 -1 -1 -1 -1 -1 -1 -1 -1 -1 -1 -1 -1 -1 -1 -1 -1 -1 -1 -1 -1 -1 -1 -1 -1 -1 -1 -1 -1 -1 -1 -1 -1 -1 -1 -1 -1 -1 -1 -1 -1 -1 -1 -1 -1 -1 -1 -1 -1 -1 -1 -1 -1 -1 -1 -1 -1 -1 -1 -1 -1 -1 -1 -1 -1 -1 -1 -1 -1 -1 -1 -1 -1 -1 -1 -1 -1 -1 -1 -1 -1 -1 -1 -1 -1 -1 -1 -1 -1 -1 -1 -1 -1 -1 -1 -1 -1 -1 -1 -1 -1 -1 -1 -1 -1 -1 -1 -1 -1 -1 -1 -1 -1 -1 -1 -1 -1 -1 -1 -1 -1 -1 -1 -1 -1 -1 -1 -1 -1 -1 -1 -1 -1 -1 -1 -1 -1 -1 -1 -1 -1 -1 -1 -1 -1 -1 -1 -1 -1 -1 -1 -1 -1 -1 -1 -1 -1 -1 -1 -1 -1 -1 -1 -1 -1 -1 
1156 2481 879 1763 2046 133 3062 662 1767 785 2235 2917 1770 1907 2193 2331 802 2082 518 1072 2957 2731 637 1792 2828 2440 2518 1916 1299 2234 1850 2151 1869 2524 1357 867 753 1119 3089 2436 1392 2959 2850 575 3111 1280 1517 2163 3064 1192 2302 1266 1267 957 627 2525 2213 1373 65 1142 636 839 2165 45 1227 231 1102 899 287 2786 87 252 1204 1545 2864 119 848 2006 1607 1845 3114 1184 2304 2360 998 2644 979 1268 2845 3101 254 1355 3126 211 1953 1754 48 1171 2714 663 1525 2645 692 1594 2171 46 2701 1847 626 720 2254 1544 1194 732 2455 1929 2988 281 1366 1626 2835 1115 2077 2098 711 2616 1981 579 2370 2808 1087 1499 264 2354 1868 837 2860 1551 203 1589 1241 2341 1494 2627 1748 1449 603 3084 1231 2713 1457 2371 2448 1014 1105 1179 12 1969 1337 2084 1994 2364 1587 2728 574 2992 2683 960 1705 1317 2004 1769 1897 2861 2386 192 2915 1921 2528 2984 1612 2303 2916 2076 2953 190 1971 1057 810 2594 1833 2869 1069 1084 1396 2738 1917 2472 712 1773 1984 2880 95 791 1437 2264 1341 2353 1456 2087 1554 1753 2501 1321 1473 2130 1698 1939 779 675 2779 674 571 611 3016 1719 2108 1427 2908 2751 1534 2298 3066 2447 838 2740 2111 1244 966 24 276 792 2969 757 257 893 2589 2214 2745 525 858 929 1887 1074 1627 2872 1029 1078 1151 942 143 1021 884 1679 1236 3121 567 1408 635 1646 2153 1661 1828 2801 898 1490 1979 91 1846 1602 2670 1731 1853 580 3058 1726 1243 1840 2 28 38 36 4822 3803 3156 4593 3649 3849 4584 4448 4095 4450 3326 4776 4664 4133 4485 3595 4092 3381 3769 4665 4960 3461 4238 3988 3419 3895 3190 3349 3589 4299 4015 3966 349 3342 4016 4986 4734 3224 4519 3746 387 3675 3192 4267 3785 3308 3173 3788 3205 3766 3943 3463 3964 4459 390 352 4414 3465 4297 3233 296 366 3515 4511 3273 4374 4711 416 3630 4512 4342 4103 3835 4622 3483 4186 421 4728 4384 3832 4900 4983 3667 3318 3343 3529 3139 445 4548 3542 4648 3346 309 3371 3742 4553 4808 3513 3341 3994 4080 420 4566 3796 4663 3582 4079 4898 4679 4976 4293 4254 3568 3222 304 3415 4569 362 4304 3623 4065 3937 3367 3249 3286 3368 466 3266 3162 444 3464 4035 4054 4855 4452 4643 4111 4876 4027 3702 4210 393 4842 4805 3685 461 4020 380 4881 3269 458 4528 3723 409 3626 4982 3980 4726 3644 3265 3482 3945 3401 4719 3955 3780 4538 4750 3169 4702 4649 4524 4791 3693 3737 3316 3467 4508 4218 4282 4493 4598 4830 4945 476 4060 3823 4937 4434 4050 4934 4858 4039 3297 4928 3909 4181 489 3336 3842 4925 492 3841 4087 493 4167 3315 3313 
1943 2782 2861 2438 259 1852 1914 2917 1028 1207 1352 1689 1533 996 261 1579 968 1368 1430 2181 2777 2675 105 962 541 1676 3070 2187 1243 2903 181 1594 1898 1112 530 2889 2711 2560 2216 2634 840 110 1395 0 2276 2250 1922 1564 1350 2841 2320 773 961 3122 2146 2244 876 1048 1464 1453 2544 1317 2694 2113 2569 1010 2078 744 1474 519 661 683 667 935 1374 2568 557 2464 1203 2312 1355 2489 1705 1675 130 2326 602 94 2076 1819 284 688 1636 1275 984 616 2887 2481 782 708 2306 2636 21 1561 880 1761 1581 152 1719 931 2534 2624 1354 806 1523 2979 1714 2246 1798 743 2721 1403 1530 1447 1336 2972 2644 2364 1551 714 54 1869 648 513 997 1289 2044 3126 682 1267 2112 2177 1157 1286 1147 247 254 1266 2131 2561 2953 1331 2745 586 15 2945 2701 1648 2111 964 1305 1238 2361 2672 662 887 2412 1452 2950 2581 2210 2452 2419 2608 573 784 1260 1150 1281 1677 207 1261 1035 1607 139 728 1038 2949 246 1427 2399 1060 724 2425 1384 3060 719 2795 1508 612 1393 1263 1634 2755 1596 2125 2225 2396 44 554 1821 810 2555 2108 1044 1748 1385 2878 2259 1815 2881 943 584 547 206 288 1730 2733 1856 940 2893 2759 3005 89 1014 520 1725 3075 1890 2952 913 873 2281 2083 2520 226 1905 721 2687 1253 778 1912 33 2151 2816 615 1172 2385 664 2384 1258 1733 257 64 2484 2386 668 201 1195 720 2747 2269 69 1871 1165 2521 144 603 2006 788 1277 2670 28 2954 1127 998 1098 158 734 1097 833 1491 3311 4375 3563 3214 4993 4777 3796 4026 3692 3710 375 3698 4307 422 4032 4758 4023 4446 4322 4419 4172 4415 4604 4728 3690 4833 3143 384 4776 4083 3702 4835 333 3697 437 297 4538 4782 3693 3638 3133 4148 4996 4828 304 3793 4744 4690 4124 3925 3650 4990 3949 4658 4869 3610 4359 4647 454 4586 3348 3141 3351 3854 4623 3181 4348 4762 4599 378 3727 3494 4242 361 3935 4594 4465 4533 338 3565 3234 4409 3587 4383 4720 3831 3637 4729 4363 3521 4317 351 3784 3225 3683 4819 3144 4035 4336 3699 4193 4815 4585 4106 320 370 3941 3209 4737 3524 3237 421 3280 3172 3874 4537 301 3613 4610 3659 4738 379 4127 4820 4676 4539 3885 3569 3167 3968 3715 4346 3552 4398 4372 4981 345 4312 3502 4403 3168 4405 4961 418 3555 3268 3754 4132 415 4692 3596 4279 3345 326 4564 4688 3252 3238 3410 4094 3668 3405 3129 3366 3509 3235 3722 3324 3542 4325 4286 3489 3367 337 4052 3839 4736 4541 4527 4830 4591 4261 4769 3211 4740 4717 3284 3859 3471 3457 4949 3184 4916 3493 3297 3894 3469 3430 3676 3634 4906 3591 4917 4170 483 4432 3913 3304 
2289 2852 1134 1031 737 1770 995 2138 1694 2923 1395 3111 2182 1931 861 603 1435 2444 1797 1839 1852 2568 1547 111 870 720 161 2659 1372 82 227 2183 1982 1495 1096 2181 1546 1742 2953 1488 2849 850 207 3028 2632 1292 1496 707 2024 1541 2033 2779 1128 2871 1281 1280 1961 912 965 2627 774 866 725 2237 822 812 2599 916 193 2745 1507 1972 2960 1601 10 880 205 2578 1935 990 1038 1862 906 1414 894 215 1088 2862 1199 1648 2906 2111 252 770 2820 1410 1182 2093 3054 2826 1173 268 2242 3113 1383 1850 1816 609 3100 892 2725 2139 1955 2740 2483 1063 2414 1141 2239 1468 1896 1668 1557 2319 1021 2774 1760 736 543 1211 1619 85 274 2070 1915 223 1510 2606 1471 3094 2113 930 1053 1265 927 1875 727 2103 1804 1454 1215 278 11 2708 2363 2720 875 1841 677 3123 2010 2207 1626 1901 2049 3055 3042 1892 762 2840 257 2145 1775 2657 2081 1424 1116 730 2784 1481 2510 199 145 1516 2819 588 1020 1051 2591 1050 1074 728 2643 2379 577 3081 1622 2768 2970 2640 188 920 289 1711 766 1784 2755 2458 203 1066 100 1900 2506 1798 1950 785 2645 977 1863 1402 256 1532 2186 2264 2613 932 1592 937 1483 3075 217 1909 2767 1819 2218 2564 2283 2262 1719 2354 2882 2950 2159 3045 561 1563 591 2126 2091 800 767 1370 805 1793 1652 2180 1358 2859 2816 2811 1703 2597 1018 2948 1505 253 516 1225 2752 2047 1434 1582 209 173 896 1401 13 2446 1309 2154 776 2509 2572 2854 1311 2443 2172 189 3030 1864 2735 1091 4781 4708 4911 302 3777 4826 328 4183 375 4475 3145 4734 4185 4249 3672 431 4631 4792 3209 4779 3670 426 4800 4123 4982 4241 4126 4974 4967 3891 3362 408 3677 327 3963 3746 3564 4644 432 4193 3643 4638 3882 415 4871 358 4785 4557 4302 3950 4250 4425 4716 4820 3601 3987 4518 3920 3421 4658 4809 3933 3715 4617 3131 3413 465 4351 3345 3400 3445 4795 4836 4111 4275 3759 4447 3361 4867 4085 454 4618 4476 3550 4011 427 3642 386 4626 4500 3964 4424 404 4450 346 4720 3159 4829 4345 4532 4656 3600 435 3947 3722 3845 3281 3474 4988 4130 341 351 3223 4199 4773 4243 4448 3531 4296 420 4505 4691 4354 3253 4552 3233 4075 3669 3188 460 4418 361 4803 4188 4308 3323 4403 4523 4329 4024 4692 4026 4478 3317 3133 4824 4730 4857 3198 4365 4285 3984 4153 4759 4732 3140 3861 3702 3263 3288 4374 311 4762 3597 3782 4312 3331 4359 4777 4735 4746 337 3789 3581 4063 4100 3877 4301 3543 4652 4598 4769 475 4541 3152 4508 470 4899 4731 3840 3412 3333 481 4947 4178 3499 3907 4995 3161 4888 3904 3306 3910 3356 4039 3640 3315 3974 
2750 2130 2484 2987 2041 2359 688 2266 251 2322 2333 574 1539 2276 1166 1389 1995 3017 635 997 959 2007 2634 790 2116 2485 657 2434 876 24 608 2146 2606 141 2332 2575 827 2188 1798 1159 641 962 702 2742 945 2857 1144 2323 2860 2210 1949 1697 2483 1189 2330 881 1731 2271 725 244 1407 549 976 1022 91 994 1763 3010 1913 941 653 1428 1880 58 1970 2223 2371 1474 277 726 2771 1378 2895 2769 156 2094 1377 2011 2663 565 2947 2315 2697 829 737 2767 1143 222 2547 518 1681 143 1 2550 2984 250 753 26 1137 981 2638 669 699 874 261 1435 1395 1209 2907 840 226 200 1721 2064 1834 1952 2912 2432 2395 575 1703 1057 2804 3014 788 2262 2331 185 501 2608 705 2364 112 834 1752 2074 182 1397 2033 1367 2403 1931 2287 922 1504 2881 589 908 628 747 1353 1618 1079 783 2519 2791 3040 117 3039 256 1359 1561 2256 2617 682 2865 1536 2878 37 1018 2709 1490 1303 2817 1090 285 956 1048 3028 2986 1778 1439 599 1708 792 1453 2603 15 2903 1078 2449 52 2958 2983 1747 2521 1047 1460 2002 2394 202 610 1847 1383 2377 2765 1336 847 1889 1886 1344 2803 803 2260 2291 2173 1920 1646 613 563 1719 3058 1520 535 2286 3125 1621 2635 2350 961 2599 2154 2142 560 1436 38 1124 127 2382 1844 2501 1800 1500 1146 2793 214 1856 1885 2647 4 1728 2855 2740 2744 2498 2099 258 757 2406 2004 2818 1323 689 3089 1849 785 964 1755 2900 2339 2450 850 2472 1749 1788 2943 1893 781 1020 1014 1497 502 3383 4425 3160 4507 4310 3890 4226 3993 4780 292 4658 4371 4257 4796 4929 3192 4972 3208 4692 4273 4248 3544 3485 4082 4208 4789 4422 4638 3550 3557 4355 3300 4962 450 360 3226 3559 4829 3514 3203 3309 3414 3779 4341 304 3817 4827 3896 3662 3941 4236 3943 4662 4396 4747 4542 4820 4605 3931 3263 3590 4201 4481 386 4887 4199 3175 4103 4637 3698 3754 4948 3394 3490 4036 4574 3218 463 4212 3650 3531 4404 4081 3275 3626 3241 4080 4877 4033 3506 4702 4091 4043 4706 3398 3604 4620 4758 4817 3177 4340 3144 4793 4012 3588 3444 4230 3132 3178 3757 3519 3174 3239 3971 4064 3989 4889 3707 3349 4963 4262 3195 4246 422 3582 3187 3209 3809 3168 3422 4278 3766 375 390 3217 3723 4088 3805 3446 303 3552 4726 3729 3765 3517 3734 3240 396 4547 4951 4719 4707 4863 4479 3341 4255 3647 4369 4976 3598 4056 3763 4705 420 3730 354 4476 3419 4384 4980 4319 3542 3166 3578 4663 4135 3362 3821 4125 4498 4187 4109 3562 3822 4218 3919 4282 4743 3791 4908 3594 4905 3322 4156 3375 3634 3859 4209 4930 4761 492 4899 3905 4175 483 3307 3825 3390 
1388 1063 1942 1395 1563 2764 1860 2829 2598 132 2981 126 181 1816 2359 85 1292 2661 2838 2581 1238 119 812 2926 2445 2218 231 545 2102 2757 2370 2074 1500 2710 146 831 2263 1631 1376 1409 724 1542 2646 1671 549 2736 1663 3010 2170 583 2819 2401 285 1540 2437 1212 86 858 2358 1927 29 747 1715 1052 2719 2147 2834 870 597 723 2497 2317 6 833 1914 2741 2658 2703 1334 221 518 2202 2390 1595 1929 3116 2431 952 2080 12 1833 2924 2664 1598 1917 1773 1662 2070 783 1515 1976 857 1710 2554 61 3104 1646 142 1232 2143 2434 2555 876 2920 1518 151 62 155 1943 2205 1778 2714 2457 759 1782 30 1356 2576 646 805 2128 1047 3031 2395 112 2015 582 88 1918 1205 941 1844 2821 1747 2827 166 1042 2265 1722 615 2825 551 1868 2430 2488 1007 1116 3118 3048 669 2546 1284 219 2184 2174 767 2996 2046 910 1327 1553 2255 1973 618 2510 999 1469 1241 2705 2582 1955 836 1581 1675 2032 1505 1002 1626 2505 1962 185 1511 1394 798 869 1438 2284 2678 1514 2738 894 3034 2958 1183 764 2870 588 2796 2117 2845 2856 2622 679 1504 1734 2756 2879 2937 1108 1008 1170 1851 983 3064 2253 1325 2708 1573 2952 2962 2468 2654 778 1743 513 1874 3121 806 1122 1895 752 1719 2388 2464 1856 1892 2021 1328 2423 2975 1761 2112 1585 2163 2540 1233 2551 2781 177 1547 1847 1672 2615 1717 2304 717 1154 1470 1138 2628 1020 918 2059 904 1049 1195 2339 2476 129 2680 527 2393 511 190 2467 2631 1340 1381 2094 1365 2320 990 4194 3777 3245 3956 4072 4354 4635 3388 4649 4285 3325 4339 3739 4884 3770 4016 3418 4865 3976 4653 3384 3374 4403 4324 4544 4289 3780 3218 4371 4406 3190 4726 3275 4773 3655 4243 389 4020 4792 309 3542 3537 303 3723 3319 3571 4017 4855 4455 4244 3664 4682 4672 3724 3699 3776 4809 3801 3837 300 3797 4697 3978 3970 3462 4298 3143 3383 4976 374 4535 4232 4363 4377 4663 4413 4798 3193 3455 3962 292 4465 3808 4358 405 310 3865 3981 4008 3166 4270 317 4661 4383 3219 3559 362 3393 4215 3423 4392 4460 4417 4510 4334 4650 4138 4958 3354 439 3586 4342 3899 4972 4234 3877 3330 4336 3156 298 4131 4812 3762 3473 3848 4907 3849 3452 4110 3742 4564 3317 3302 3546 4753 4352 3340 3964 3203 400 3516 460 3953 3456 4625 3943 3891 3996 3756 3869 4472 3167 4458 3540 4894 3720 3642 306 461 3349 451 3886 4036 3589 3420 353 3149 4083 4297 3323 4310 3392 3370 4100 3563 4085 3288 4945 3435 3827 4740 3819 4357 3572 3847 471 4261 491 4174 4971 4040 3479 4010 4941 4925 4162 3453 4969 4893 483 4142 3165 4910 4895 497 4179 3860 3426 
567 1040 1856 2787 1942 1476 1525 2299 2288 1807 1554 1433 1961 1678 903 596 798 2855 1395 1188 503 1208 2714 2045 2791 753 942 2542 2455 2001 2771 2584 2568 2069 2302 131 1373 1864 1237 1226 2702 2937 2392 1185 2198 861 587 1535 71 2479 919 1669 2918 248 867 1879 62 2593 2197 1754 757 3058 2059 2611 3105 1483 2117 2451 1332 1361 289 2307 2290 2837 2560 1427 1290 2348 1124 611 1938 528 500 3123 30 735 2217 2617 1603 2441 775 1197 1090 841 1557 1699 1775 2606 87 2312 2003 2018 1229 2716 2612 2196 786 13 2443 583 2494 56 1513 577 2812 20 262 966 2894 1076 2642 2603 2056 521 2671 2664 1119 2273 2243 901 1343 3115 1455 2475 2705 1659 94 683 1418 1252 1781 613 948 566 1914 2166 823 888 1262 1349 997 1078 2543 1771 873 1635 1726 1811 900 1487 1081 1515 247 2757 1393 69 250 55 1162 1759 1314 2658 2839 1250 1813 36 2578 1391 1707 2863 2846 1972 2254 2948 1975 2015 2318 945 2872 2404 278 3022 2277 790 884 2036 678 1311 1576 1766 3064 2175 1172 874 74 2444 1640 2736 751 2075 511 1239 2297 2143 2932 807 2878 2239 1397 2051 1526 2382 918 2002 728 1390 198 696 2834 1831 2006 1178 2610 1920 1392 2278 851 2040 1325 1773 1902 2619 2873 2386 2139 2674 1797 1429 1073 2567 2280 1747 2423 272 26 787 2471 2232 2042 1282 2133 1042 3009 1396 1217 890 2904 1817 2965 1071 904 2713 2794 2238 2265 64 2219 2753 1023 1140 2063 2008 275 1664 2824 1097 762 2970 120 3012 680 1033 4782 3874 4555 311 4714 362 3544 427 383 355 316 4773 3349 364 3447 392 4064 4158 4972 433 4198 3467 3844 4094 3501 4252 4308 3130 4963 307 3449 3246 3988 4220 3712 4342 3341 3865 3213 3869 3933 3314 3260 3737 4960 4003 3143 3516 4792 4400 4341 341 3538 3323 3754 4689 401 3950 3779 3468 3575 3266 303 4636 3671 3829 3384 4600 3736 4268 4287 4798 4047 4333 4959 3872 4407 4892 4336 4474 4521 3330 443 4439 4487 4451 3792 3275 4221 3627 449 3586 4281 3249 420 3153 4111 3548 3613 4994 3156 3179 4828 4610 4015 3694 4471 3288 4898 4201 4629 3772 3370 3644 4747 4379 4073 4183 4639 4346 4868 3535 3930 3922 4685 4286 395 4684 4247 456 3461 3769 3650 4609 4857 373 4136 455 3861 4148 3206 4194 3508 3604 3421 3669 4753 3632 3970 3363 3252 310 4531 4846 422 3526 4415 3986 3582 4616 4193 361 4110 4192 3964 3642 3680 3198 4257 3368 4757 4401 4384 308 4420 3783 393 3561 3210 3917 3820 3435 4357 3847 473 3436 4718 3840 4086 3161 4209 4921 4168 4143 4751 4761 4709 4895 4171 3916 4693 4932 4180 4937 4207 3676 3912 4837 
1507 1437 855 644 1730 1201 862 2154 1336 925 241 1030 2830 741 685 1953 1902 2690 1591 2683 1411 997 1771 1765 2997 2394 2746 2084 981 863 1342 279 1120 2750 2406 2539 785 1382 2336 965 2766 2049 2831 1091 857 900 145 1485 1978 1405 1992 1416 2550 2967 1853 2839 1609 1418 2062 604 1239 2020 178 125 1465 2188 1714 2445 3040 1144 3125 660 1587 1285 2699 1470 2323 2017 2087 2273 671 2794 2602 220 2534 618 2767 2717 793 1879 2906 1735 134 168 2595 245 2249 580 551 619 2849 2297 856 1481 272 2004 1754 1799 1204 262 1779 2505 1467 1217 549 1309 865 899 3114 283 1327 1659 669 246 2573 2861 1094 257 100 2696 1961 1215 1056 2325 1983 1707 778 1580 729 922 2791 1163 1731 2958 1211 2453 2025 1183 1949 1389 1671 2944 1414 12 2926 1265 1014 2463 1558 2858 2558 2577 2428 673 642 2088 1419 851 688 214 2167 3103 2474 174 2165 1272 2403 806 1564 996 3101 1890 2271 765 54 953 2663 2679 3098 2031 2546 28 2148 4 1531 104 1491 1080 2874 2870 626 2806 880 1867 1732 2166 2700 154 3062 1874 172 1782 2710 609 2935 1757 3059 1966 133 1446 1921 942 3083 2513 2805 2290 1492 2739 2588 1178 713 2963 590 1633 2028 962 2640 665 774 148 3038 2896 1270 1661 1955 41 2234 518 2646 1538 2725 2051 290 2731 972 1513 2645 805 107 813 1576 1749 2625 2450 1755 1630 2537 1440 2596 2114 2233 2089 2801 2788 1451 1571 69 1379 2117 1717 2085 1870 792 595 1473 974 1794 1862 1684 130 668 1256 3252 4069 3328 3586 4287 3698 3873 4898 4135 4042 4548 327 3675 4198 3935 405 4000 4036 4147 3803 4402 4343 3289 3965 4205 4681 4682 4116 3785 3701 4080 3687 4153 3864 4225 4285 3615 4416 4716 3281 4076 4192 4746 3710 4070 3463 4768 3381 4138 4283 3303 4150 4978 3433 4211 412 4188 4106 351 3239 4103 3890 4148 4687 4749 3896 4892 4558 3507 3154 4064 321 357 4016 4323 3137 4765 3924 4773 3191 4845 3778 3467 3132 436 4552 325 4129 4880 3545 4126 4583 3413 4268 3702 4610 307 408 4083 294 3273 3230 4894 4735 4889 3671 3884 4122 454 3993 3420 4263 3183 4639 3661 4478 4281 4720 310 4439 345 3554 3592 3638 3954 3740 3875 4337 4442 3968 3776 4788 4279 3744 4617 4311 4286 3156 4728 4452 4556 3807 4555 3970 397 3964 3517 3669 447 3697 4701 3170 4419 362 295 3134 3267 460 4996 3193 3809 4662 3248 4635 4515 3694 4744 3247 403 3168 3176 4262 312 3866 3148 3563 3329 4546 3498 4294 4301 477 3823 4550 3919 4140 4357 3902 3307 492 3336 486 4141 3640 4142 4693 3908 4431 3900 4891 4916 4761 4421 4139 4946 4039 4834 3851 
2721 1841 2155 2876 1074 692 2838 1839 2374 10 1501 1198 1624 1215 1513 2814 2847 1481 873 1618 2065 2877 1246 1972 2230 20 1881 1974 33 1588 88 1720 1952 1278 125 571 1378 626 631 2871 2924 2887 2225 563 1668 2613 1603 590 1556 1147 661 642 1130 1853 775 2229 2187 1427 1662 1411 3092 1106 2231 952 2172 1967 90 3018 2369 722 97 1782 2857 686 629 633 1691 1161 2042 2964 513 2487 1532 1797 730 818 2353 1752 954 1226 1017 248 1417 825 773 2278 1938 1370 2656 2465 2403 2539 2167 1658 1334 848 1835 2482 2900 1825 2761 1181 2853 2157 1925 1706 511 1646 2552 690 2627 822 3117 2115 2948 2985 2407 1786 170 2622 2821 1826 705 2869 1837 2606 2600 3073 865 1233 3076 2914 569 1611 255 689 769 3028 3067 1789 673 2825 652 1833 1256 1639 572 2511 2787 1460 40 1187 2285 704 953 2751 568 2610 2378 2264 2016 1094 2224 982 2870 1679 2534 19 2425 817 279 3052 129 876 2283 1828 2326 990 3037 245 3103 224 909 801 2396 1908 31 213 1907 766 1444 1933 1287 1049 2818 2220 624 2424 2129 1081 2204 2782 820 1758 872 2242 1312 3098 735 612 1099 1772 2835 1497 1208 2740 676 1369 2029 934 253 2381 2099 3068 740 2207 1359 1930 2265 1504 835 21 3107 2027 2899 3126 1045 2628 2467 2632 744 1599 2076 3030 135 919 2263 2097 808 2048 2201 2503 3120 509 231 966 2295 1896 2756 1509 2605 2788 1180 1447 861 1725 1398 1189 2261 2776 1231 752 937 517 1351 2349 1527 741 679 877 2646 1992 338 4387 3721 3581 3920 3226 3191 3400 4813 4791 3354 3461 3175 3712 4795 3179 4401 424 4647 384 3765 3537 4290 298 4313 3650 3981 4075 3352 4257 3583 3171 409 4476 4195 4475 3671 4962 4069 3393 4730 4880 3715 3540 3762 3567 4438 4545 4660 3579 4451 4611 3529 3754 336 4886 4929 3164 4745 353 3267 4382 3710 4266 4270 4878 3296 404 369 4133 3427 388 4176 4682 3521 4073 3703 3570 4954 4818 4603 410 4987 3814 3379 4253 3564 4202 4707 3219 3504 4539 4724 3311 3338 4079 425 3274 4507 4828 381 4415 3492 4972 4326 4353 456 4350 3802 3523 4027 3476 339 4650 4273 3783 3672 3536 4363 4576 4960 3230 3238 4444 4460 3935 4801 3590 3468 3922 4815 4287 3994 3290 3882 4805 431 364 4762 3835 437 4232 4666 4978 4794 3275 296 3747 3509 4248 4667 4792 3664 397 3526 419 4701 4790 3409 3722 4766 4808 3985 372 4349 467 4311 3774 4229 3648 4953 3654 3795 3956 4540 3589 4967 469 4060 4140 4830 4109 3917 4357 4440 3584 4061 4893 4114 3681 4995 3897 4166 4143 4731 4957 3469 4941 481 4167 4174 4938 4920 4179 3791 3333 3860 3974 
2201 1358 671 1324 1836 2085 107 2405 2489 2188 614 1039 689 2926 167 2565 891 1208 2638 1734 2427 2717 1998 1401 1444 2762 1573 1833 1586 2160 1413 627 1180 2606 1133 2038 887 3008 2587 2059 1272 696 989 3023 1377 3030 2318 1869 2364 1398 666 2228 1249 2791 2729 2105 184 1813 2713 3 1110 2644 1883 1310 180 143 532 844 2428 120 2860 2610 59 1239 2699 138 2602 965 24 1580 1384 1557 2820 1290 1170 775 572 1770 237 2821 102 562 1156 1319 3016 2119 559 2483 1322 768 1462 3120 2862 2278 3114 1760 1281 111 2267 525 2222 2924 221 2620 970 2198 1936 1138 697 2642 566 2959 523 1307 2614 1834 537 1452 1811 1083 2734 1364 219 806 669 2497 197 1625 798 2513 1360 1251 852 1259 1736 2974 280 1019 1822 1709 1652 2178 1590 185 2795 1403 2913 1637 2957 2715 611 2542 2599 1782 1804 137 2252 2005 1884 1959 208 2892 2597 873 1656 2927 871 123 1091 2075 2209 609 1316 2004 1535 2470 1282 2193 759 3125 1542 1563 1001 2521 3074 2643 114 265 2834 2124 2719 751 1457 1043 240 3066 2500 2475 2616 564 1748 1659 1971 1390 2277 2367 1680 517 2984 2419 2706 1662 2861 1611 2014 1866 2436 2086 728 2564 2438 145 2108 1200 658 1064 2784 1620 3083 41 1501 3006 2787 1343 151 1634 2831 676 952 2612 2372 2771 2856 773 2770 626 1023 1847 538 831 1000 173 1189 2140 2095 76 84 1626 623 1730 1315 2916 2131 1129 171 1925 140 2583 2248 1299 1090 1562 579 1342 590 2547 2446 1135 1693 2849 1431 1123 304 3285 3937 4680 4811 4489 4584 4135 4270 4252 3898 4211 4204 3280 3762 4445 4876 3638 4223 4514 4881 3148 3741 3880 3233 4355 3377 358 402 3993 396 4716 4241 3763 3849 4221 4539 4672 433 4732 3566 3622 3142 4631 459 4351 3522 3807 463 4035 4015 3630 4430 4748 3882 386 318 382 4952 3153 400 4330 4329 4728 3928 4284 4931 3407 4848 4580 4271 4685 3460 3624 3467 3518 3836 3219 3483 4459 3992 3327 4205 4874 4364 3438 4176 4822 4337 3844 364 3574 4457 4307 379 4792 345 3135 3696 3182 394 3570 3939 3583 4203 3380 4136 4385 3220 3612 332 4308 4614 391 4785 3673 3371 4650 4320 3305 295 3207 4860 3810 4347 4637 3198 3443 343 4058 4562 3973 3405 4474 3382 4886 3396 416 4260 446 420 3855 4022 301 3282 4734 4042 3642 3896 3663 3577 4793 4727 4106 4183 4790 4254 3644 3319 3308 4529 4110 3244 443 3525 3889 3785 3311 4239 3301 3334 4466 4078 3647 3388 385 4532 4294 3919 4646 471 473 4613 3210 3562 3572 3917 4696 497 3818 4895 4761 4914 4975 486 4904 4128 3477 3901 4171 4432 4145 4921 4142 4991 4050 3304 4839 
2263 37 2073 1729 2152 217 1969 567 2471 201 2374 804 1098 1679 1833 163 2297 49 2680 2473 2011 1506 2883 2600 1848 2492 2688 1483 1105 1965 973 1987 1301 3022 2072 1646 1370 877 819 2015 1030 2632 1609 2105 1556 1762 2786 1166 1526 1794 2915 992 1177 2841 1365 803 2306 2340 2529 1541 1886 3116 943 2576 2995 1015 773 3086 1149 1004 2802 1665 2394 1915 1418 3013 3071 2896 1430 2368 234 734 1644 617 7 2108 978 1840 2614 756 2255 550 600 939 709 1390 1036 4 1405 1516 45 2131 1781 2042 2103 822 2256 1648 2819 728 2941 2555 712 2830 1243 758 1164 1697 2362 141 653 1881 2130 263 2740 790 818 2719 2587 635 1594 1239 1611 3061 1550 1710 735 2399 2699 1736 1637 754 2058 1258 1205 126 505 2277 6 1423 188 2758 514 2145 853 2067 1208 539 3098 2358 1588 2968 3032 1807 2407 2800 2246 2250 718 2893 710 999 2570 1084 1436 1224 1959 279 2276 607 2726 669 1033 579 1009 1319 1325 1603 55 500 174 2279 176 2651 2157 2475 1336 3012 1771 1564 1684 1486 118 2379 1795 2057 904 2091 2585 554 1982 1092 1691 784 2887 800 2097 1217 1392 1345 1376 73 3006 760 1521 1960 1437 1416 2055 2039 2949 932 1570 542 1034 906 595 1060 1394 2135 2803 1487 2775 226 985 2964 2038 1150 737 1630 1115 731 3067 2385 1925 1328 232 2207 2903 967 2345 3020 2541 2899 582 2643 3005 1621 1274 1949 3010 2252 2682 2940 1190 1627 2866 2611 2908 907 2465 1514 2761 2691 110 1465 1322 1885 2815 2737 2267 2730 4242 4817 4812 4369 3153 3419 3168 4195 4027 3127 339 4668 3610 3752 4653 4794 4496 4909 3896 3271 332 3833 4543 3829 3521 4402 4772 3302 4567 3723 3964 3706 3659 4038 4099 3654 4841 3207 4522 3926 4339 4415 4366 3508 3946 4356 4742 333 3991 4305 4299 3217 4068 4860 4414 4482 4617 3193 4297 4129 4650 4519 3140 3861 3797 4410 3323 4847 4474 395 3406 3588 4881 3256 369 4447 4877 3888 4842 3173 3182 3641 3523 4289 4703 4647 3201 3398 4648 4716 4481 3664 3351 4950 4887 3522 4687 3301 4607 3627 3399 3261 419 4381 4306 4244 3361 4462 3309 4789 3885 3266 3200 3345 3890 3775 3720 3252 4967 4069 3623 4757 3748 3648 4783 3887 3288 345 4255 3262 4986 3344 4463 3869 4358 4458 3781 357 432 4952 4231 301 3793 3839 3949 4811 3170 355 4335 4442 4047 3263 4655 4088 459 4690 4961 4960 4624 3722 397 4970 4568 4184 4422 439 4630 3455 4208 4792 3237 4085 292 3157 4862 4287 3921 4037 3584 4062 4591 3919 4125 4061 3212 4140 4098 3681 494 3356 3215 482 3493 4164 4166 495 3412 4977 4924 4128 4895 4906 486 3841 4141 4171 3851 3315 
2621 1235 1356 684 2318 72 2338 189 2939 1949 1393 2750 2762 1477 1851 2911 2803 1361 759 1244 1484 1327 1945 2983 1924 1454 2463 2247 543 2500 2529 137 2674 2622 995 2172 2392 505 2208 537 2307 2496 594 2935 2279 2649 1243 970 2474 2894 1572 548 2981 2375 2700 1231 780 2559 917 731 2406 1632 3066 1809 2361 1294 1540 1871 2862 1529 701 2603 2070 908 3019 2929 1115 2930 1664 1628 868 2571 2210 1944 852 1708 2530 865 833 2146 3122 2270 41 2190 2757 1381 3076 982 2186 95 3013 679 1485 2579 2182 3038 2475 992 1245 1465 562 561 2756 1510 1064 1958 1578 1624 187 530 1412 727 816 2898 1581 769 2882 1518 1435 78 2478 94 1645 1228 2903 1033 1267 2290 876 89 2372 2109 270 2584 2401 667 830 969 1350 2385 2166 2804 994 721 1031 2938 519 1848 1357 2808 786 864 2860 829 1194 1608 1169 703 532 1416 45 2336 1349 2989 1364 1728 1910 921 944 2447 2342 2718 2749 2701 3099 2090 2609 2769 2103 1883 141 1382 1748 1226 1224 922 2257 1992 1635 2402 3112 1401 2690 2333 1826 2145 1753 3018 1570 2099 3057 1973 1398 838 2564 1770 2967 220 1794 1904 1916 291 2631 2305 2841 2591 776 584 556 1418 636 2915 1270 1792 2908 2797 700 1044 1610 2909 224 2575 542 2526 1328 1315 1917 2003 2482 688 1320 1119 626 2083 620 1095 2927 2766 2687 1124 1548 2994 108 1158 2886 934 2891 3069 2174 2588 1111 2782 2511 2652 2013 2436 911 171 610 1495 2901 202 9 2813 2732 2221 127 1004 1154 1408 1341 824 3266 4989 3544 3745 4172 4943 324 4710 4370 4307 4283 3517 4854 3465 4703 4371 3286 3512 4309 4886 4871 4439 4358 3192 3790 300 4813 4625 4584 3541 4681 4659 3271 4088 4637 3742 3865 4919 409 4570 3599 4295 4275 4636 4054 4386 3154 3585 4702 3180 3719 4397 3139 4320 4755 4246 4474 4487 3710 3744 3519 3587 4134 4960 3755 4314 3759 4523 4122 3369 4250 3586 298 3780 4723 3702 309 3669 3832 4981 3870 4385 3298 4557 397 4472 3694 372 3168 4553 4415 4064 415 3495 3515 4096 4737 3642 4612 4808 3261 455 4522 3804 3725 3247 4046 4841 4805 3538 392 304 3610 4233 3262 3796 4011 4426 3334 3439 3314 4721 4641 4211 3789 3685 3346 4347 4578 4014 406 460 3600 3881 3674 401 4124 4329 4842 4879 4199 3162 3460 451 4482 308 3954 4475 3285 3740 4869 3698 3636 3808 4349 3933 4269 3926 3528 3463 4827 3526 4150 4538 4592 4832 297 4200 4580 4260 4614 4510 4705 4094 4336 3839 3647 3436 476 473 4546 4541 4294 4718 477 3819 3428 3307 4280 3900 4751 4941 4170 481 4964 4888 4995 4174 4162 4893 4925 4899 3858 495 3336 486 4839 3912 
2836 1259 87 730 3038 2901 1584 2838 112 31 1016 1200 265 2339 1375 276 250 1225 1841 2472 2241 2823 2640 2183 2577 2061 2311 2327 2049 990 509 2812 2167 1589 2600 1162 2442 1592 2789 704 833 186 1657 167 1010 1078 1913 984 1042 2445 1510 2462 3100 27 2384 2801 2880 2011 1911 1406 2318 1875 638 1144 1023 1040 1558 257 2706 642 742 1331 1894 1014 1522 2869 2954 1856 864 2163 1851 2877 2386 923 2496 2965 2859 2645 1001 1915 2974 993 2725 1465 1731 870 2294 268 862 962 204 824 2 1355 866 1330 2961 714 1011 1166 1501 110 145 2161 2113 745 880 1070 1405 2613 2219 1979 2475 2312 1739 2783 603 1199 1100 1761 2810 1119 555 2851 1570 1819 2654 1370 668 1604 1251 2083 2194 2431 1886 1091 540 1652 43 1280 1672 1738 2238 1275 825 892 2101 2396 2773 2131 1195 2461 511 804 2972 1452 1021 66 2089 0 2913 2770 1433 252 605 1715 2930 1367 1571 816 1611 1025 1910 572 2297 2729 1207 983 2989 2074 1163 930 1421 678 743 1889 2768 2168 1638 1776 277 731 2692 2446 732 91 1051 2480 222 2179 2004 1263 1287 675 1734 235 1193 1253 1418 1978 1636 1521 1429 753 837 552 2406 291 510 1411 1723 2172 2484 1432 2346 1082 980 1232 1099 739 2502 1285 1747 3008 1619 2237 1464 773 1229 1415 1298 1297 3106 2889 2188 256 6 1953 2192 98 2867 789 799 2239 1206 51 2720 939 1852 84 1973 522 2217 3103 588 2377 776 1678 2997 1937 1169 194 775 2226 747 1682 1651 1679 567 17 900 234 4700 4800 4559 3660 3633 3381 4728 3349 3199 4657 3656 4371 4965 366 4485 4420 3291 3610 4253 368 3399 3282 4764 3279 3198 3958 4515 3160 3973 4817 3672 330 4501 3938 4479 3742 3330 4524 4701 4770 4079 4588 4489 4268 3631 4811 4684 3800 4099 3956 292 3343 4056 4063 3244 3352 4781 4804 4539 3593 341 3959 4578 3685 4967 4393 3929 4216 4292 4582 398 4244 4519 4732 4727 3395 3875 3815 3319 3421 3203 3642 4402 3555 3524 4759 4104 3268 353 3241 3353 4407 4929 4242 4476 3722 3622 4628 4305 4576 3317 3521 294 3502 4748 4451 4028 413 4229 4043 4110 4072 449 3861 4211 4668 4679 4208 3743 4204 4871 459 4720 3853 3237 4687 4529 4191 4765 3903 3689 3986 3776 3697 4607 3522 3761 4374 3444 3434 4675 3655 3253 3983 4429 3709 3611 4619 4302 3296 3141 423 3535 3495 3416 4186 429 3688 3301 456 4826 3197 4083 3944 3982 3814 4013 3778 4563 3794 3243 4755 3845 3351 3391 4148 4023 3562 3826 4301 3533 4598 477 4591 4140 3498 4508 4731 4113 4910 3306 3830 3276 490 3625 492 3942 4743 483 3375 4050 4920 4893 4162 4938 4427 4834 3851 
799 1017 212 1155 649 1324 190 1838 554 2777 2328 2494 757 289 2656 1162 1925 2341 2574 2296 3118 168 1628 2105 1926 640 1286 1530 1211 711 141 2548 691 1111 546 2366 1251 246 2414 2914 1241 2094 1596 2937 2364 1245 2664 652 1747 2474 1222 1857 1446 3037 110 1466 1522 684 2610 252 1799 3054 1125 1385 231 760 750 2890 2407 771 3109 2531 2060 2540 2774 2662 2352 2011 948 1744 650 1826 2378 1272 1998 2542 2785 1748 2551 683 1622 2783 1147 1611 550 2741 1201 1231 1072 1190 1319 2090 2108 1545 1720 909 2024 2081 1573 3030 883 1756 577 519 571 946 2606 725 2805 882 931 1432 1610 1771 95 2938 1296 1929 1999 1448 172 1095 795 2572 638 2110 1374 1213 1349 1716 1959 2447 1633 50 2312 1004 2164 2635 2025 1888 2044 838 2753 2118 144 25 1219 824 21 2372 2564 651 191 2322 3011 2527 60 2673 2373 1634 2487 3098 1829 1840 2878 2959 669 1736 1037 1578 3058 1899 2165 140 2199 2409 228 522 1949 2579 1050 1277 2829 274 1210 1156 1681 1724 2214 1956 273 69 2493 1587 2964 1761 2919 3103 1480 584 590 164 2948 778 907 540 2522 203 846 3024 2417 2541 2265 2653 262 2222 1924 101 1273 1855 2075 3051 171 2501 53 830 3111 2992 1180 1415 1439 963 837 2697 210 1314 1598 2886 2658 1918 1642 2511 1937 1608 1091 2952 2472 2056 2827 2476 1967 678 1464 1952 1284 1471 3122 1970 2736 1620 2776 1531 1561 2269 46 1614 2119 2161 1824 1969 1784 758 524 737 217 1347 2683 710 1609 2074 1583 2393 4617 4055 4860 386 3930 4581 3736 3874 4403 3574 3132 3404 4435 4729 4583 3658 306 4123 3652 393 302 3776 4992 3678 4842 3397 3813 4970 4537 3423 4993 4453 463 4517 4406 4697 439 3396 3880 3960 3998 3251 3259 4633 4350 426 3462 3954 4172 3983 3257 4283 413 3568 391 4470 4273 3670 3931 3187 3873 3347 3133 3762 4576 3788 3888 3694 3410 4494 398 4829 4951 3295 467 3787 325 4362 457 4838 4221 3287 4989 4049 3739 4817 3456 4570 464 4257 4424 3604 3507 4553 3698 4027 4032 4122 4526 3690 4722 3861 4342 4124 4972 4048 388 3971 3928 3707 4230 4111 4313 4401 3768 4021 4101 3832 3547 4831 4746 3200 3311 3671 392 4771 4289 4872 4815 4528 4004 3188 3466 3293 4555 4479 4962 3864 4624 3358 3612 4077 314 4210 4592 3393 3214 3947 4638 4826 3387 3944 4250 3159 3619 3407 4196 390 3766 3373 4071 4597 3442 4655 3560 4008 4279 362 3755 317 4953 4776 4785 4900 4954 4966 4108 4440 4882 3543 469 4718 4541 3919 4613 3284 4301 3905 4087 4995 3640 4114 4925 4973 4434 489 3322 4376 3591 4157 4731 4189 3897 3841 4427 4182 4837 3912 
2730 2444 1865 227 2458 2601 2672 1153 940 1674 2846 2857 584 2847 524 581 677 537 970 969 747 2171 880 1778 1486 191 2465 1175 2093 1382 2589 147 3069 1174 3072 1405 813 2345 278 602 704 1097 1158 1215 2285 2564 2898 1548 816 1675 2815 3027 2890 18 2334 2913 105 2290 2355 1847 2848 3105 2575 247 3064 3088 888 2413 946 1850 1337 1363 762 1015 66 2302 190 1544 176 1732 1200 1857 765 952 68 2611 922 2693 694 130 2455 1049 1510 3060 2388 612 991 2031 3004 2148 568 2147 1798 1607 2219 2758 2357 728 996 2369 1256 2284 280 2936 2430 2767 1951 667 2513 269 2842 2110 1707 1170 603 1136 1935 2864 1018 1211 890 686 725 2445 2806 2273 1747 260 1810 1236 2151 886 2769 1402 2403 2957 1206 626 629 2731 1107 3085 3095 1180 1517 836 1591 2511 1307 2945 526 3107 1161 1560 40 257 1636 5 3068 265 1931 1859 1168 522 2778 117 21 717 1223 2867 228 1209 2790 776 1730 1112 3083 1448 1659 2641 1090 748 2317 2484 1086 1344 2005 2030 1860 1789 1490 1618 2923 853 264 1024 2685 2391 1478 1534 289 2671 756 1007 2041 937 1586 1737 3059 598 681 1366 2001 639 715 3125 16 1016 1034 1981 2271 4 2091 1621 1581 1561 2549 2283 3122 790 189 2990 2323 2266 1746 1846 722 707 923 1997 2996 2307 1824 2665 1445 2545 210 2604 2002 2832 2346 512 802 2481 699 1885 960 282 1492 1212 1338 2741 3097 122 2981 1949 161 2997 2873 1392 2676 2657 2801 1150 1868 2318 1849 1033 2948 2718 738 2456 4549 4161 3189 4475 4422 4571 4138 3835 4560 4501 4695 4987 4423 3506 4392 3380 3335 4268 3302 3291 300 426 4739 443 4275 397 4815 4573 4617 3420 4850 3616 3577 452 3866 4587 3836 3665 4867 4013 4599 4329 3881 3658 4794 4716 4191 4103 4232 3578 4746 4443 3299 329 4216 3855 390 4832 4507 365 3207 4551 4907 4671 3254 4369 3542 3470 4559 3553 3478 4027 3318 4222 3752 4361 3418 3886 3848 4641 4758 3679 3683 4293 4529 3925 3959 4368 3246 4775 3626 3203 4974 4288 3834 4122 4217 3247 4444 4795 3378 4959 304 310 343 3790 3715 4371 3353 3763 4108 3920 3712 4651 391 3160 4518 3243 4791 4322 408 3656 4534 4778 3545 3369 3324 4231 3236 3567 436 4627 4025 4565 4514 3621 3756 3932 4271 311 4702 3888 4610 4653 3456 3581 3951 3548 3746 3194 4595 4556 4330 4999 348 3697 3193 3611 3521 3337 424 3985 3546 3135 3168 3452 3570 4602 3882 4857 3195 3201 423 3388 3657 4123 3690 4074 3820 3436 4125 478 4945 4037 3212 4140 4840 4432 4934 4973 4141 4114 4189 4995 4936 4925 4144 4207 4893 3904 4162 4908 3477 4433 4977 486 4837 3974 
146 3085 2955 1770 2324 1958 1 2657 3004 2362 2591 1626 1853 2872 2085 1532 3016 795 1343 1584 118 106 2804 2812 1906 509 1215 2824 1174 238 1140 1850 3051 587 513 979 1243 937 2407 1419 2555 1942 540 2489 2133 672 247 1179 1619 1301 2235 945 1698 2278 2533 1142 1234 1025 2080 2897 2516 2745 792 44 2464 23 1029 2603 2424 1514 1801 1165 1368 1947 2888 3039 516 1193 2523 1575 2546 2474 2079 2805 1089 2093 1812 3121 1006 1889 110 1107 3074 2568 651 2070 1097 2679 2000 1758 844 1907 535 2878 2832 2382 1928 710 143 1148 2073 1040 2994 3069 1214 1505 725 2506 1162 2084 228 141 1365 2633 1761 1021 577 1382 1497 1423 2914 1401 169 2772 786 105 1431 21 797 2270 2433 506 1525 2060 1843 2344 1318 908 760 946 2508 2301 602 1924 1721 1657 2343 1745 948 2720 199 628 2219 1504 616 2045 1170 100 1252 674 1396 1242 731 1270 1405 31 251 841 1328 2556 819 2198 1773 2908 2724 2703 1653 2522 993 1590 1668 167 1496 2357 2549 3 1080 3057 669 58 2917 1161 3002 2200 1739 2064 1490 83 2979 1651 2956 749 2699 2521 2865 995 2500 1345 1779 1443 209 2118 1484 1637 2507 1899 1762 1799 2165 2029 2736 2259 2510 601 1882 2194 670 2648 909 2784 1996 2145 864 2760 1068 1332 746 1369 2377 524 2406 787 869 2002 1373 1561 3122 556 3111 2880 1520 693 707 641 761 922 2269 1808 1737 1144 1912 1838 1887 1931 2806 2778 999 164 2028 1213 1013 2334 1526 1289 1305 737 863 1904 1357 2122 1531 2490 3619 331 3341 3458 4147 3365 4466 4871 4027 4523 3172 4856 4707 4530 4783 3520 3914 4441 3808 4006 3952 3537 4322 3240 3335 4242 4398 3601 3162 4231 3483 296 3346 361 4403 380 4965 4711 4422 3598 4352 3538 4337 293 4589 4463 375 4841 4194 3185 3536 4994 3774 4552 3888 3778 342 3595 3829 4653 3793 3132 4265 4649 4536 3698 4350 4198 3151 298 4723 4237 4176 3249 4755 4395 319 4682 4324 4641 4559 4760 3970 3362 3997 4035 4694 4107 4415 4460 3255 4183 4791 4756 4068 4342 4835 449 4146 3141 4317 4372 299 3699 4689 386 397 4602 3350 3279 3759 4980 3767 3146 3447 4627 3715 4391 3245 4615 3338 3803 4534 3530 4215 4360 3254 3867 4898 3402 3367 3892 3442 4548 3607 4730 3756 4315 4565 4445 4970 4773 3443 3969 4252 4502 3230 3688 4983 3183 4678 403 4307 3289 409 4601 4327 3709 3713 3675 4069 4076 3188 419 3401 4554 4688 3889 3507 4029 4263 4313 3250 4150 4192 451 3516 3562 4301 3543 3539 477 4061 4670 3163 3284 3432 3503 4937 4895 3818 4921 3904 4165 4941 4492 3940 4151 4141 4114 496 4901 3843 3471 4935 4166 3974 3429 
2149 971 628 2671 2670 558 2804 214 2264 2707 3086 621 718 1749 1663 3038 1692 227 1136 2827 2314 2541 2260 2660 2612 757 1551 2711 2914 2 2449 1739 2346 513 2959 1465 2995 1703 1778 2577 788 2803 2883 1865 1490 2029 2084 1950 2289 510 1514 1972 1850 1231 1509 2350 1256 2813 2231 207 1366 1653 706 2937 1241 1416 84 2027 1584 2331 2739 165 3071 798 1595 174 2543 1776 2416 2538 1496 805 649 2740 52 2355 886 1361 1798 519 2976 2140 2528 521 946 3074 973 1066 2944 1224 153 1592 2936 733 3042 201 2646 631 1189 1895 2431 2107 93 3091 2477 1087 1931 25 2818 1486 894 1341 1234 1541 1961 1527 810 176 556 1329 1380 1951 1877 1319 2816 1378 1573 937 2648 1328 746 1500 1874 673 2999 114 2491 1645 2574 575 892 1916 607 1743 547 664 2426 2158 2868 554 163 2359 574 2508 1244 731 2347 2701 1040 2115 1304 1841 2924 1485 942 787 1832 2942 3032 1956 1311 3047 2405 2899 2164 1222 120 1576 1479 768 2561 545 2609 2589 2625 1450 977 1269 1983 2662 2668 2932 818 2566 1026 2117 1303 2380 1457 1625 2456 2770 640 1919 679 1855 181 1805 2614 2846 2402 2299 266 774 1603 1123 2851 1005 927 822 1166 740 2035 3013 859 262 2206 2064 1175 577 2977 1503 2690 2880 634 1002 1025 2261 2374 1882 2679 1807 2309 2873 206 2212 779 1258 1702 1217 1524 2453 1962 285 3037 3057 2761 2772 2814 1733 1032 1459 3111 1511 2963 1862 3120 2759 2067 1440 660 1204 1993 2763 1176 1405 2836 41 2370 766 517 1172 4616 440 4395 4272 358 3933 3760 4848 4625 4561 3478 4544 3262 3864 4795 4239 4750 3171 3873 3624 4103 3790 4578 4902 4420 3712 4500 4378 4499 3431 3140 3954 3456 4248 361 3980 4429 3735 3587 313 4958 4724 3164 4362 3341 4672 314 4330 4014 4689 4244 3226 4872 4780 454 3535 431 3205 3187 3510 3697 3325 4310 4566 398 3928 4215 335 4504 4983 3727 3527 3192 3665 3726 3378 4425 3234 4660 4196 3694 3127 4713 4411 4229 3691 4997 3281 4519 3674 3606 3452 4264 330 4824 3521 4744 4870 4594 3204 4160 3148 4628 4662 4784 3302 4028 3585 4814 4907 4117 4450 3446 3194 4776 3352 4685 4265 3364 3466 4453 4707 323 4494 4212 4739 4767 4241 3718 3563 4889 4057 3279 3427 341 3394 3532 4268 4045 3357 4823 3883 3293 3538 4737 3993 3468 3285 4818 3494 3983 4746 316 3475 4826 3222 4567 4659 3512 3915 4155 455 4710 4059 4191 4583 3476 3679 4385 4153 4337 3582 3251 3175 3339 4414 3318 3284 3822 3847 3823 3820 4670 3498 4163 4717 4550 3307 4906 4434 4145 3215 3451 3908 4939 4927 4175 4938 4709 4693 3859 3276 4917 4171 497 4010 4837 3913 
2398 907 995 1843 791 26 746 1054 775 77 2740 2596 172 1306 1672 696 1789 2325 2471 810 2713 1642 1030 1072 2488 157 670 1489 265 2268 230 2986 1128 983 1475 2391 1326 1607 2178 1578 1140 1939 40 2173 601 2858 2921 73 2799 1118 2160 1671 2138 2719 1636 923 93 3033 3007 137 605 3028 2380 1082 1801 2871 2496 834 3109 1174 184 2676 2758 1876 1677 1579 979 530 1232 2478 1569 1609 2894 2125 1205 122 576 1832 2299 603 1487 2128 1180 744 929 2256 755 2904 2331 1954 217 1461 2451 2435 3125 777 63 2174 611 1220 2042 84 1631 630 2100 712 1933 2480 1456 2209 562 222 273 2711 1288 1463 2636 1599 1360 2344 242 2491 1676 895 915 2540 2517 2638 2553 2017 2734 763 197 2645 727 1769 1775 520 1096 963 1254 2412 2475 2709 17 1436 1424 2149 510 3097 1668 13 2828 2607 1472 148 2094 1313 1549 2980 201 1508 1956 2080 690 1635 656 2542 1733 1053 1022 732 1802 1534 856 154 2376 1629 255 1601 2469 1051 1520 2964 2071 1502 2996 1654 147 1323 977 787 2476 782 1581 2551 1400 2794 3043 2856 3039 1301 2442 1720 1361 1408 695 933 112 961 2646 1572 1252 1897 3062 1511 774 1724 142 1499 55 2301 2609 1399 2745 716 1237 2494 1706 1809 2225 517 1165 1194 1543 817 3 1859 224 2224 1281 1085 527 1018 930 162 699 2311 1366 1257 3050 2698 871 177 772 1925 973 1109 1179 1473 2495 1011 952 2025 1184 2512 1841 1911 528 2580 2534 544 83 98 2763 657 841 2708 2811 792 1329 596 3475 4515 3295 4651 3722 3734 4317 3805 4041 4645 3982 3301 4609 3964 3746 3755 3661 4847 4380 3773 4796 4804 3263 3732 4982 3478 4136 4038 4273 4279 3569 4512 3311 3218 3642 4419 3775 3854 448 3667 4968 4951 4288 3359 3666 3413 4424 4590 4429 4193 3968 3567 4088 4736 4653 3696 4698 381 3598 403 4642 4242 3258 4225 4400 4322 4107 3730 4188 4909 3626 3433 3480 3756 4016 4297 3782 4362 301 394 4384 321 3448 4746 4449 4674 3939 4482 3177 4850 4289 3260 3799 4314 4004 3704 4287 3193 3348 4052 4341 4089 4499 3689 346 3411 3149 4518 4439 4617 4417 402 333 4095 4485 359 4372 390 4879 4399 4738 4887 3283 3507 4568 4470 3345 4311 3486 407 4034 3180 4343 3296 4604 3404 4388 3741 3158 4018 3525 4448 4902 4027 4825 3219 3760 3559 3461 4487 4321 4960 4528 328 3622 3290 3736 3675 3554 3757 437 4053 358 4972 3387 4491 4033 3245 386 3670 3374 4283 4722 3192 345 4385 3136 4097 3584 3798 3138 3435 3484 4163 3210 4945 4112 4180 3479 4941 4165 4964 3904 4207 4969 3681 3901 3493 3184 489 4914 4168 4936 3471 4901 4143 4883 3860 
813 65 2198 2390 1007 2919 1394 2434 2542 2802 1841 2405 2476 1905 2620 1908 791 277 2506 907 3024 2120 2528 3085 796 1153 2325 1413 1187 1634 821 77 1647 201 229 2572 2510 2268 2091 2154 1868 2596 1365 1010 2939 1204 2333 1264 2973 79 1633 621 1848 3108 1693 1378 2520 1182 2152 722 881 1902 586 571 1684 601 2227 2651 525 2260 1379 3036 2171 2318 2278 516 1876 757 1409 1631 2375 816 275 2685 1304 168 643 249 2545 190 1552 1576 2182 73 285 935 3106 3091 2264 2806 542 1147 2008 1313 80 962 1878 1713 2878 1787 1716 2243 1800 2310 1422 1460 2297 1395 902 807 2896 1975 1505 1174 582 2869 1624 964 1277 2550 1850 971 1103 543 883 2258 2775 1775 1284 2501 1844 2814 1450 2635 2330 844 2600 2024 245 1612 289 1871 2853 2440 146 2681 1194 1390 2312 1082 3121 1699 2319 2299 2893 116 968 2989 2473 2076 2623 2531 2237 1596 1724 618 1326 1223 191 3104 72 1052 2214 916 203 510 1578 204 61 2573 564 1415 1694 1046 2465 1622 530 2211 2916 1045 1993 1145 982 1738 1164 1213 3020 800 219 3045 2439 984 678 1530 2966 668 2511 119 2557 2667 96 28 2062 1953 2433 2798 112 1690 2086 2236 2144 1645 511 734 788 224 2618 1838 2365 3080 1473 50 3073 1992 1583 1320 1338 84 1896 1459 1224 2780 1075 679 1528 2259 1805 1451 2808 1322 2500 2943 3052 840 856 2053 1119 515 1959 505 1732 2677 1325 234 644 1104 1680 2789 263 762 2607 2963 2228 2995 3102 1306 1125 2588 2566 2031 3006 1563 4133 308 4326 4284 3990 391 3923 4605 4365 393 3194 3305 4502 3545 4389 3660 4028 3941 4364 4539 357 3928 3934 340 4620 3948 405 3607 3202 4155 4857 4132 3733 3630 4518 3240 4907 3605 3219 4188 3931 3804 4063 3945 3799 4489 3743 4481 4278 3617 4610 3740 3443 4716 4194 3713 3433 3260 326 316 3179 3978 4461 4734 369 354 3927 415 4469 4653 319 4198 4523 3668 4572 4418 3386 4091 3700 3326 4644 4585 3997 4879 4552 4390 3716 3374 3575 4556 3531 4124 4599 3367 3207 3529 4998 3574 4293 3628 3181 4238 430 3774 297 3801 4846 4543 4013 4542 3698 3805 4038 455 3581 4355 4627 3176 303 4650 4902 4429 4982 4849 3354 4695 4594 3496 4399 3704 353 3401 4655 3614 3597 3879 304 4479 4778 4525 4976 4066 4509 4025 4560 4094 3410 3711 4300 3647 4409 3353 4226 4034 4500 3764 4183 3895 3285 4584 4488 4242 4473 3731 4245 4666 3779 3320 3633 4748 4285 4886 3342 4749 4583 4269 4266 4493 3798 4830 4944 3539 3562 4163 3294 4098 4508 4904 4178 3469 4139 4932 4165 4693 3909 4209 496 4888 4492 3322 3842 488 4914 3900 4040 4235 3315 3426 
2808 1183 2914 2860 1176 1079 2606 286 2882 2574 2659 1870 961 2358 1563 1980 2374 758 2585 2381 247 818 1610 834 2740 1948 1314 290 2058 1109 773 1140 2345 2658 2845 2708 1740 1542 2405 2541 1289 1651 2317 701 3038 1211 2641 2582 1330 1005 882 2098 1043 1539 1586 646 1407 2016 2482 789 2455 2438 1187 2382 545 3049 549 2420 539 832 945 892 1845 260 1885 3071 2946 2497 2818 2977 1778 2813 936 745 1952 1495 1465 2568 898 2248 1796 2975 608 2880 1305 840 1347 1924 1829 2550 2173 3067 2835 817 1174 3084 2578 1172 1391 1576 2493 1761 3117 1014 124 2113 2027 676 1063 2239 1982 844 1768 2135 1861 2224 1400 1833 691 2280 2318 3045 2663 2752 1584 2555 1342 845 1444 1692 528 2126 1641 946 1947 1575 1906 2330 2467 2989 783 766 2235 924 1498 918 1925 1936 746 1561 1280 2228 1562 1384 1758 2997 2283 2350 1613 1178 2072 2234 852 2546 2138 509 2471 2844 1237 2820 1955 742 139 1228 1093 1147 2516 1207 2149 540 1950 1243 2632 1716 612 1943 1858 72 661 1110 9 2431 1520 3027 143 2961 2344 1511 2093 4 2133 926 1206 1313 2864 1242 514 1356 1874 152 221 802 2764 1905 1338 2883 1028 512 1503 1644 2718 1371 2168 1696 1649 2532 1519 186 2066 967 29 117 1880 2577 588 2933 1319 764 584 647 265 782 2649 2030 1593 2525 1569 1037 1392 1000 2865 54 908 2272 80 795 846 2004 2018 184 2701 805 1316 2715 2539 1075 2786 220 2119 2414 1929 1618 2267 666 2207 1279 1701 1026 1426 1808 933 2676 4287 4042 3399 3524 3888 4148 4737 3734 4201 3925 3931 4875 452 372 4004 4833 351 4604 3653 3157 3381 3520 3247 4193 3490 3272 3169 3465 3602 3341 3725 424 4661 4723 348 3190 3462 3280 4314 3689 3922 4021 4390 3720 3422 3133 3360 4564 3178 3193 4153 4763 4478 3574 4190 3410 4429 3444 3719 3233 3615 349 4291 4778 4323 3641 4305 3328 4378 4237 4634 4374 4602 4616 4017 4771 4289 3854 3130 3168 3886 3476 4636 3923 4552 3300 293 4684 3582 4952 3156 4000 4417 4349 4517 4773 3708 3164 4808 4342 4346 3400 4462 3482 3723 3601 3308 3449 3849 3979 4860 333 4496 4821 4871 3781 3835 4486 3915 3314 4575 4423 4072 3794 4453 4752 4274 3228 4372 3517 3636 4710 445 4574 4838 4035 3478 4379 4790 4366 3579 3596 3542 3930 3883 4470 3683 3954 4880 319 3207 407 3267 4568 355 3628 3759 4075 4036 4108 4907 3665 4422 3199 4986 3813 3635 3348 3887 4607 3780 322 4230 3421 3724 3632 4102 4097 4187 3440 4218 4613 3822 471 3533 3428 3820 3184 3355 4899 4157 4937 483 4941 493 4162 3216 4113 4207 4166 4693 4947 4914 3857 4946 492 3390 3825 
2516 2526 1504 1678 665 3039 2762 1729 89 3095 2540 2730 1594 1381 2256 1709 2205 2777 726 1382 3009 573 902 1008 1939 745 1882 697 1017 1505 1161 995 2237 2384 1119 1440 1737 790 699 2131 2966 2148 1083 1642 1722 1267 136 1123 2914 2303 2192 1408 1592 3060 2598 1954 2929 587 780 2355 1316 1416 1645 227 683 1031 2413 212 2592 1099 894 828 1511 1565 3083 256 2482 2674 1244 2300 2623 1076 2767 874 2722 2113 1703 1981 220 2359 1694 27 2501 9 540 1419 1711 1150 2800 1292 2902 1286 159 2051 2257 2040 1660 1097 110 614 1034 770 2280 2937 1299 1261 1251 1587 2006 2479 1667 1450 527 1938 2327 1681 998 957 1512 2461 1203 1038 1644 1464 3084 2958 1560 1567 2203 2784 21 728 892 1637 1822 1049 596 2803 254 1340 1696 2951 1216 1535 1155 215 2837 1922 2600 1057 2594 859 861 501 764 2457 2838 1310 663 1682 1486 2945 720 149 1779 1037 1146 842 664 1930 2480 913 2342 2008 1991 1748 1491 186 2282 1425 1795 1228 2636 900 692 3015 191 2396 932 2214 798 1989 1805 2682 686 816 1166 929 1443 2122 876 1690 1094 1557 170 2525 2844 2605 2856 1214 520 2645 1524 2250 1284 1836 19 2037 2530 1596 1775 29 880 3049 2266 2891 1422 643 857 2935 2184 1556 2432 2455 1844 1625 1293 45 2521 288 2369 2681 652 829 586 2078 11 904 14 1725 2167 812 1412 1167 553 673 274 228 837 1683 2857 2633 1096 2626 1988 2595 17 2790 1154 2374 576 2972 1647 924 1082 26 64 1343 2096 1546 1313 2404 4760 4585 4444 3639 3599 4033 3774 3954 4684 4581 4388 4000 4319 3423 3804 3427 4996 4420 4210 4360 4855 3433 3831 3845 4008 4397 413 4803 4239 4593 4391 3793 3780 3160 3522 3350 4870 3441 3741 3532 4489 4016 4629 403 3687 3303 3654 4147 4034 4754 4795 3425 4450 360 3547 3779 3434 4214 3856 4818 4473 4200 3761 4728 3302 346 332 3183 4953 4715 3930 4777 3805 4617 3563 356 331 3862 3462 3481 4284 4873 461 3972 4954 3875 392 4460 3758 341 4667 3947 4227 4890 4424 4020 4742 3737 3990 4372 4580 4322 3312 3870 3955 4638 3326 4453 4006 4366 4602 3193 3874 4241 3474 3644 3534 3142 4393 4612 3537 3698 3141 3262 3399 4346 3753 3739 3542 3490 3783 4456 299 3849 3280 3242 3345 3181 4194 4185 4070 4552 3861 415 4808 440 4096 3175 3377 3194 4079 4054 3699 3401 4228 4199 4535 4358 4523 425 3416 4833 4107 4886 4568 337 3603 423 4369 3359 4306 4584 4838 4078 4116 3404 4487 3152 470 4740 4112 4163 3977 3163 4546 475 3432 497 4977 481 3916 4040 4897 4923 4964 4166 4178 4861 4743 493 3276 4891 4928 4858 4843 491 3231 3974 
617 2667 130 2617 3070 2607 2184 2778 988 525 57 2955 3051 1255 3117 1493 797 193 1604 557 2888 559 2740 2560 1242 2906 1788 1171 1994 2980 521 2618 2723 2901 1405 2930 1049 2055 631 2938 2427 3031 1305 1940 1497 2088 2502 1506 936 877 1950 1991 208 2057 942 1611 291 93 547 1268 2399 1537 1366 2900 704 1692 2899 822 125 766 3072 2947 1301 613 783 2799 1850 1507 1383 1926 1016 1282 1403 33 3003 2535 2969 1252 116 2767 1422 1691 1861 1896 1819 2295 1865 502 1613 2320 1389 1599 2239 1884 2931 1968 2329 2976 1635 514 1670 3004 1916 1513 1353 1364 1910 2210 1770 678 1899 1964 1495 1717 767 832 2235 1533 820 978 2843 1628 1015 232 2377 1411 2107 2261 1055 2971 1324 1162 2831 3111 2719 932 219 1656 1003 2150 289 2991 2916 2859 2863 1836 2513 1720 1898 610 2085 1997 1179 1132 2307 1800 950 145 1871 1862 2774 2326 1711 2647 2234 1306 849 2921 2746 2948 691 1761 2668 645 1153 2229 2415 3040 2553 1325 2634 1528 1983 2538 1577 121 561 2477 1291 1071 2509 1260 1373 933 2129 2789 2482 2635 2364 2369 1828 973 66 974 2030 1704 2537 858 2007 74 2686 1274 1371 1130 1679 14 1619 2266 979 3105 544 939 2324 2807 1736 1420 2420 1226 1763 2158 1410 3113 1283 2014 1462 3035 206 1741 941 781 177 1248 641 2720 744 999 2848 1429 1470 220 81 763 1264 1080 2870 690 865 823 40 1182 2097 1452 1060 2384 3106 216 1774 774 2962 281 2661 115 524 3085 1565 2729 1395 1728 2458 1085 3019 1446 3302 4854 4183 4507 4288 3989 3887 4032 3581 433 4706 4791 3590 3598 461 4623 4640 362 3772 4473 4240 3346 293 4681 3148 3223 3697 3325 3784 4615 3204 3162 4131 292 3464 3689 402 4739 403 343 4963 4787 3324 4386 3754 3382 307 4339 4213 4538 3760 3466 4334 3226 4660 3663 4426 4569 4437 3172 4308 4576 3596 3522 3200 4595 306 3995 3308 4360 3359 4601 4471 3414 4599 4038 3888 4445 4451 4856 3713 432 3960 4775 4644 3455 4855 3969 3614 3133 4552 4873 338 3646 4727 455 3729 4027 4436 3623 4561 3648 3136 3134 346 4792 4253 4707 4283 321 3862 444 4705 4781 4095 366 3524 3972 4560 3780 3592 4721 3747 453 4247 305 396 3957 4699 3250 3986 310 364 4454 4120 3475 3809 3349 3170 3976 4981 336 4548 3763 301 4094 3417 4744 4107 4540 4597 3706 4488 4347 3727 3920 4477 3504 319 4368 3555 4126 4379 3709 4014 3547 4277 3331 418 3606 3296 4714 3597 4736 3925 3853 4568 469 4550 4440 4830 3163 3435 3847 4498 4613 4187 4888 4938 4906 3306 3591 4923 3751 4162 4050 4891 3372 4927 4971 4128 4145 3894 3356 491 4139 3315 3974 
2352 2069 1827 1170 3049 505 2677 2520 890 2799 1981 1521 1631 1492 2451 1657 2912 2665 2869 1218 2348 1352 1519 2048 1637 2311 2650 2413 1630 612 2724 1365 593 1242 2970 2519 1699 2996 2546 94 2842 156 2221 1035 1705 1493 500 1983 2779 2807 892 3027 821 1992 1838 2607 3069 796 894 1628 2360 240 842 2085 1138 1803 1330 1847 2736 865 895 2843 172 896 211 621 1011 1498 1725 2615 1226 2187 1592 2108 1543 78 2625 2792 2349 2566 2829 2372 2412 2635 645 941 696 2817 1363 2010 846 1666 2124 580 1881 2648 2776 2464 62 1529 1537 2484 2594 2878 768 1022 2767 2370 267 720 2864 3100 2243 2183 653 991 2832 2580 1338 2013 1495 53 1316 2487 2166 253 1802 1957 1861 2465 2290 1980 1317 219 2528 1789 2698 2456 2935 1258 2045 873 1036 1123 1811 1974 982 1914 212 1620 201 2083 794 1052 3120 158 2401 1084 928 1335 955 1395 1041 2066 1019 2740 131 2366 2022 2355 1065 974 831 1482 975 1984 2949 2883 1720 1142 1841 1807 1815 1490 2452 2861 3011 1835 2577 246 2319 19 1602 2938 1961 1232 759 1060 1283 565 1977 2150 1784 2894 2569 508 1160 2605 2626 1812 997 2384 754 534 2261 2908 2133 690 1648 1512 985 736 2076 2364 1764 98 2595 1552 1412 989 832 834 656 559 836 2662 2747 2623 2174 959 215 3125 630 1210 1560 2600 1999 1693 2511 2877 2312 916 1442 804 847 1075 1819 90 861 1466 1888 2684 1876 1926 811 2467 1828 2425 1649 2212 2340 2992 945 1859 2153 2058 2974 1418 1124 1943 860 845 4535 3419 370 3745 3320 3132 4567 3765 4185 4382 3692 3945 3929 419 3559 3986 4133 3434 4290 3303 4067 4602 3724 3175 3136 3957 3272 4200 292 3242 4960 4069 3409 4201 3213 3321 4190 4569 3970 355 4439 3879 4237 340 4213 3924 4842 3150 3839 3384 3135 4570 4346 3395 3778 4745 3476 4103 3275 4265 3764 4000 4057 3525 3636 3647 3899 4507 4808 3617 3925 4269 4464 3196 4373 4603 4161 4078 4284 325 387 4812 3622 4974 293 4724 4448 4254 3933 4398 4485 4578 3497 3214 4992 3997 4581 3402 4211 3701 3265 4090 4902 4436 4041 4445 3610 341 3706 4149 3137 3364 417 297 4304 4799 4827 4875 4753 4424 4982 3817 4604 3984 4630 3882 4651 3359 3645 339 4387 4487 3581 4611 4221 4320 3465 3376 3317 3677 3770 3255 3982 3145 4296 4735 3337 3691 3603 4344 3246 4461 3244 3771 3177 301 449 4329 4772 3994 3243 4123 3421 4803 4796 4100 4972 4108 3835 3931 4556 3523 4877 4259 365 4966 3624 3823 4527 4718 4816 4187 3918 3826 4646 4882 3138 4731 4861 4168 496 3375 4932 3356 487 3453 4157 4113 3902 4433 4431 3322 4973 4914 4858 4975 3313 3825 
1966 1256 2257 532 3087 1565 761 3063 705 2607 2128 1917 3081 239 766 501 2746 986 1097 189 2269 99 866 2903 2482 697 125 2603 2763 1156 2185 98 2095 510 2939 1098 1632 3061 2469 2851 1885 669 959 3065 1716 1546 1336 893 1588 274 1282 3033 288 2500 2009 2780 123 1194 2516 1970 1996 174 1079 2964 2663 2275 1658 2538 2753 270 57 606 1676 2033 1389 1687 767 2736 55 1136 744 1880 1139 613 2752 636 2898 3075 2549 69 1828 1358 3056 2733 1797 2114 2825 856 2910 1350 500 10 2179 2974 2056 1241 2514 256 724 2849 183 829 770 113 1674 795 1722 1399 2231 2152 2089 2497 1176 87 580 1240 2993 1206 199 949 200 3123 20 3021 853 1155 907 3043 1965 1543 1047 1719 1660 832 275 701 2325 68 698 2242 1231 913 1143 1424 2321 901 2584 1931 1126 1528 2140 1999 2081 44 220 2649 2972 1131 2624 1841 1172 2838 1862 1323 781 1875 1331 702 3059 1096 1974 2499 2116 1723 2797 2031 112 2936 2023 84 1805 287 2973 1084 969 196 788 1903 1710 2052 940 1906 2250 2567 2706 1780 2836 289 1333 222 799 1795 285 1540 1625 2981 2983 955 1773 1446 919 837 686 1823 1137 1099 2795 2450 800 1458 905 241 2270 1621 3094 1657 1574 1975 1784 1296 1839 809 3112 2643 1210 821 704 2654 2719 2600 2740 631 2322 168 1755 1379 798 2997 2739 2383 1712 1346 522 1714 53 1111 2994 996 1523 1108 1568 1366 2854 1109 1650 3028 1452 530 965 1577 2448 1761 3088 1666 2382 1283 2980 1117 2952 1563 652 2861 4989 4339 4844 4919 3270 3168 3924 3196 3178 3500 4821 391 4069 3512 3328 3967 4205 4193 3844 3709 3433 4810 4741 4302 4356 3392 4909 3730 4689 456 449 457 4594 3263 4242 3863 3320 4902 4083 4196 3710 4792 3960 332 3329 3628 387 3314 4091 3421 3862 3394 3411 3365 4418 3129 4450 3147 4626 3302 3246 4583 3787 4983 4824 3938 4950 4452 4590 318 4398 3377 3415 3162 4442 3890 420 4894 3274 4406 3609 4360 3691 3153 4501 3997 4841 4015 4853 3933 394 380 4799 4650 4159 435 4064 3892 3419 4057 3559 344 3497 321 4982 4425 4149 4617 4602 3664 4055 3764 4090 4871 3882 4076 4016 467 3773 4574 4328 4860 4185 4278 3288 3335 443 381 3707 4776 4184 314 3417 3607 3729 3867 4707 4237 4148 3689 358 3733 4443 4963 3247 3358 4757 4126 3380 3132 4684 4823 319 3753 4119 4750 303 4066 4476 4138 3237 3734 4887 3423 3984 3768 3934 4589 4448 4813 4785 416 4401 3544 4966 3150 3976 4282 3572 3211 4357 3919 4098 3152 478 3498 3823 4942 4936 3858 4434 4918 4934 4937 4926 4923 4709 3842 4433 4930 496 3451 3906 4921 4888 4971 3824 3549 
2566 64 2834 2116 2803 1301 2556 106 50 919 2805 2848 44 1782 1729 223 2513 2879 57 2752 2760 2710 1227 2272 2311 513 1573 1828 2158 1950 910 1234 1826 1931 1895 248 2898 2284 1846 878 1348 2770 2446 1724 1556 115 161 1310 2461 2437 191 2965 1287 541 1991 3033 2013 2888 2660 2263 1149 522 2700 944 565 1602 984 571 2933 2598 2406 1645 2350 2993 1835 2920 2373 1493 1102 1876 2417 1070 1866 2514 2485 2608 1063 1426 1505 1684 1195 2372 2093 2628 1611 1843 2106 1980 150 2764 702 643 3010 912 2630 1383 768 3042 1466 2647 725 969 1784 553 1759 2473 840 2363 765 1263 2931 2086 1716 238 1952 900 623 2321 1305 2073 1157 1436 2137 890 1434 618 1928 2429 1941 2924 1922 1056 2952 2217 2964 1240 579 2883 237 34 2635 2984 2004 2680 2814 2669 694 946 939 2800 2475 1765 2772 2339 2060 1756 1883 2240 2097 1145 2721 1051 1012 1231 894 648 1170 3013 2102 1269 1235 1202 2109 2076 2099 1845 1077 1075 2603 560 2377 1093 1754 276 2515 2229 128 2038 3119 2172 1208 738 1571 2753 2008 218 1815 260 2490 264 2550 1000 1741 249 736 1875 1336 1333 2256 2025 3049 2491 630 708 257 2842 2480 911 2806 2633 2024 2911 1268 2458 2754 1034 2537 2295 756 1562 1920 1168 1597 2007 3052 1993 791 1730 1488 752 274 1259 1983 1617 2533 539 1566 184 2021 2226 1271 669 1319 1226 2359 507 1241 2336 2590 2781 3035 88 2932 1885 2663 2619 2310 1520 1413 2247 1793 689 2617 124 704 801 2970 2139 3047 141 2588 769 4708 3172 4689 4482 4220 3521 4257 4065 3367 4217 4131 4349 4155 384 4266 3480 301 4806 4690 4134 3329 3671 3135 4785 4653 4859 4346 3899 3291 3544 4326 3295 362 4774 3831 4987 4247 4863 4018 4595 3811 4075 4892 3323 3195 3875 3397 4296 4236 4849 3800 3780 3663 4756 4586 3740 4725 4793 4643 3590 389 4370 3299 3837 3189 4352 3643 3896 4667 3787 4138 319 4898 4230 3398 4666 3459 3213 4452 4430 3380 4826 3153 3609 3524 3246 3287 4565 4889 3809 3948 3645 4776 3173 3537 4273 4418 321 457 4148 3714 4685 353 3438 4420 3528 3227 355 422 4616 4468 328 4874 4274 4827 3983 4287 4072 4377 4982 3325 4474 4337 4651 3996 4477 3599 4278 4320 325 402 4475 4245 3712 3394 4322 340 3516 3615 4529 4030 3150 4306 4896 4912 4522 4088 3582 3732 4160 4286 3243 3699 4221 3199 4372 3196 4126 437 4732 423 4014 4729 3186 3771 3162 4590 4575 4462 3197 4055 3134 4071 303 4442 3846 447 4944 4197 4673 4527 3232 4440 3561 3821 4945 4550 3901 4941 3479 3450 4143 3751 4991 4928 4949 4946 485 3859 4113 4913 4922 3591 4939 4174 4141 3974 3429 
2888 943 2188 978 158 1945 3121 1767 873 724 2812 50 1145 3018 2920 2291 1223 1350 2503 1496 3057 231 1408 2831 543 1817 2820 2621 2740 2521 1274 2905 88 688 1489 1049 3068 2246 1613 230 780 2028 2484 2925 2016 270 2795 2951 977 2578 2980 1699 507 2358 3098 64 108 2658 1263 2949 17 2742 1616 2841 1008 2739 3094 1291 2866 1359 600 521 253 2041 2339 1264 194 505 910 1978 1058 1436 1687 2457 1596 3047 952 2275 2424 663 1989 3097 2496 1419 1346 2572 1071 698 2271 958 1009 268 2372 34 2269 1968 2144 2401 887 559 67 722 2121 1192 1207 3017 1992 1028 1214 2249 2928 2086 591 2628 675 140 2700 284 2780 1095 3034 2568 2657 2047 553 1366 2163 2529 1563 1790 173 2760 2538 2014 1538 144 2654 2264 2489 1306 2409 2105 1525 1686 2862 1680 1558 1565 934 1869 2794 2708 2642 1233 2004 2583 1085 2847 2510 1822 968 1762 2423 782 2103 2482 41 1292 3038 2213 1257 1487 529 578 999 2370 2232 1475 2171 588 2485 878 1564 278 653 1812 2383 1179 1857 2577 2547 2229 3092 2899 2587 1701 524 2585 1229 1554 2244 860 668 2668 1079 2045 757 2589 1114 1000 1553 2784 2354 557 2761 1933 815 953 1967 2611 1025 1122 266 1256 2444 677 2380 2473 2175 1542 1684 1610 2550 2797 1575 1679 1630 3046 2056 2813 2463 1140 1083 143 1062 1677 1299 712 1675 2921 1427 2157 1341 2854 28 1800 31 1143 1981 2130 1394 2846 1112 2337 1051 876 1808 2756 2201 717 1320 2632 2790 1572 1801 2635 2793 512 211 192 763 2825 4576 3657 3643 385 3585 4776 3542 4641 440 3293 4064 4318 4943 4741 393 4205 302 3370 3718 3668 4589 3832 4393 4544 4805 3856 4387 3623 3146 4584 3238 3544 3688 4459 303 3679 3425 3807 4691 329 3947 4192 4237 3871 4437 4079 3592 4575 4271 3631 4747 3288 411 4107 3698 4665 3652 3547 3359 3660 4260 3420 4988 4331 4438 4031 3329 463 3554 4051 3311 4506 3765 3491 3586 4967 3924 355 4962 4258 4723 3206 3465 4642 4512 3648 4854 3470 4657 3259 4915 4976 4477 3614 4565 3891 3975 4959 4392 3200 4404 4457 328 409 4583 3892 3745 4410 4203 447 4626 3330 3422 3302 3434 3710 3893 3774 4892 3173 3323 3956 318 4333 4954 3925 347 4409 3981 4359 394 3234 4547 3776 4341 3538 4119 4847 4484 4621 3728 3512 4057 4874 4204 4322 3951 3204 4633 306 3275 3475 3220 4293 403 356 3225 3607 4745 4588 4595 4655 3995 4466 4750 4505 3714 3833 4970 4439 3213 4034 3921 4909 4055 4965 3760 3917 4550 4098 4261 470 4197 473 4428 477 3798 3503 4984 3493 3751 3216 4949 3591 493 4905 487 4181 3908 4180 4128 3457 3897 4938 3165 4941 3304 4883 
595 1303 175 53 1140 1138 1613 2363 148 612 46 2792 2702 1730 167 2969 2141 1252 2565 269 1986 1831 1410 790 2162 2007 1017 845 2302 2721 2729 129 2751 865 805 211 80 534 1935 2713 3063 1693 1230 1878 2468 2970 552 2977 847 1056 809 1523 2155 841 881 1024 1232 2767 2507 240 920 2531 2483 119 631 2001 1928 1301 963 2752 1323 897 1258 2556 1683 1433 224 1195 1501 501 1245 2611 700 2092 2191 1387 2397 852 1833 2313 1834 1041 212 1704 2479 1879 986 2088 600 1269 1396 2677 2152 258 2982 597 2983 2251 128 52 550 285 2884 2779 866 2056 2462 1337 1659 2202 1045 721 1135 2725 3108 1957 2596 2385 1333 1265 2374 1271 1128 2306 2546 867 1576 1806 2145 1787 2643 976 1126 2144 1115 2355 270 646 1012 2663 2799 196 885 722 141 1770 1144 1278 1319 2070 2139 1583 2055 178 1534 115 2730 2380 2791 1820 2647 2369 2661 2863 3068 1331 1937 1366 1934 2579 1611 580 1586 2127 2234 2925 1106 2097 932 2111 2247 1004 1678 2956 2658 3045 703 2064 1156 195 112 2980 1281 2146 874 724 564 950 2411 2240 1628 1048 1355 2436 2820 2153 1103 699 198 1191 1427 2074 2109 2148 1564 2867 2128 537 1147 2854 2173 924 773 2289 62 204 1924 1273 1853 2158 3030 1513 3027 1713 2120 1720 1150 1313 1895 1765 676 3092 2359 2576 640 1821 3048 1076 2793 1257 801 43 2521 749 41 1463 243 767 2894 2776 1556 554 2676 1008 2823 1276 2309 579 1449 1637 1571 2283 100 1783 197 2114 2004 2025 2931 2502 2000 1477 3514 4621 3574 3192 3653 4581 3644 3986 3763 4778 4813 4710 3973 370 4983 3258 3871 4250 3278 4348 4586 3749 3781 4711 396 4724 4757 3285 3663 4644 3522 3348 4818 3523 3926 4253 4654 3927 3366 3302 4405 4741 4364 3799 4124 3655 4958 4705 4334 4034 451 3203 3793 3400 4256 4243 4683 378 4645 4618 4629 4402 3662 3711 4685 399 3886 4397 3254 3487 3235 4254 3660 4763 3483 4951 335 401 3770 406 3723 4630 3939 4716 4252 4054 4108 3893 4604 4110 3555 3647 3790 4667 373 462 3460 294 3592 359 4792 4413 445 4597 3732 4990 3981 4100 4708 4876 3489 3924 4739 3502 4008 4602 3590 3326 3247 468 442 4732 4558 3387 4417 3449 465 3593 409 3139 4214 408 4014 4048 3692 3515 4719 3569 4894 3465 3938 3746 4019 3962 4135 4244 4570 4271 3920 4554 3266 4150 347 3813 4064 4099 4881 4103 4511 4224 3984 4424 4707 4407 4466 3771 3492 3288 363 4970 3518 3861 3323 3690 3279 4956 3936 3294 4140 3917 4428 4498 4591 4541 4493 469 471 3902 4941 494 4010 4939 4169 4280 4432 4114 3751 3591 3356 3857 4235 4901 4922 3594 3215 3412 3750 4834 
1274 2807 2774 108 2333 3010 2148 609 1900 1891 1131 2111 766 2640 1834 2492 1254 1537 513 2739 2906 650 1091 2875 2433 903 2567 2610 255 1668 2986 287 1718 1385 2030 1237 1455 814 649 2308 642 2394 1893 2215 1663 1195 1338 1930 1562 2135 2158 974 286 3118 1793 1488 2489 1820 2899 2632 1398 197 591 168 1755 1573 3043 546 2868 1525 2654 1853 683 3075 2657 2114 1921 2909 585 1069 91 1700 1999 2431 889 976 1177 1831 1287 1848 2799 653 2141 1298 926 1120 1635 2882 1780 854 2571 241 2290 630 2561 2852 1546 249 2863 2012 2458 990 2671 2862 1421 2301 1528 67 1538 2246 804 2398 2209 2359 2467 2363 3095 2600 996 2327 2715 1106 2742 124 2808 2362 2914 2550 1944 2905 1343 2413 1666 636 2706 1534 1261 2560 1101 1423 3117 1829 2372 603 1232 2212 1915 2847 1061 1055 1047 2410 2483 1126 1460 2315 2528 2460 3079 840 1138 810 2457 2121 596 950 3014 1152 2176 1118 1048 1860 2228 2001 2547 722 2220 60 2201 1249 3058 1257 1206 1130 184 970 45 1722 952 770 1076 1008 1561 2516 2726 2773 2416 1471 843 2180 2075 183 2542 195 2579 1019 2960 1382 1613 535 2469 705 1079 2878 2119 1427 2557 599 2358 1693 518 767 1522 1984 1093 270 2981 2651 1267 686 2833 2214 2661 584 1856 3096 2811 1807 582 1837 2794 3048 1513 1359 900 71 1877 1627 1644 2204 3085 101 1712 1410 2451 2381 1684 1732 3030 263 3033 913 1515 1660 135 1112 1998 1476 1060 3047 164 726 1341 1031 2871 3011 3087 883 534 2744 2903 1756 4016 442 3140 4297 4423 4000 4370 3392 3599 3525 4446 3867 3844 4362 4872 4134 3139 4529 3793 4817 348 4230 3569 4677 361 3941 4841 4300 4532 3760 316 3749 3413 4148 4685 4480 4599 3448 4632 352 431 3335 4426 454 4064 4070 3240 3514 3464 4634 4254 4555 4309 3319 4462 4533 3596 3287 3924 3408 3130 4385 4458 3398 3717 3969 4457 3481 3261 4350 3988 3708 3856 4263 367 3721 3181 3812 4216 4735 376 429 3946 3848 3380 3190 4847 415 4954 3317 3664 3884 3778 4453 3790 3691 4417 4015 460 354 3604 4563 3745 4108 4272 4757 3623 4048 3734 4873 4232 4790 3807 377 4967 4190 4011 4775 3805 4827 4287 4980 3160 4275 4091 3899 3541 4687 3242 3887 410 374 3788 3467 3962 4024 3501 4351 372 3725 4807 3863 4442 4860 3129 425 4391 4027 324 3810 4129 4256 340 4055 464 4266 3131 4023 3388 4943 3279 4525 4344 4715 4292 3735 3619 440 3582 4813 3445 4825 313 3489 4284 3834 4267 4061 4109 4527 3436 471 3917 3819 3210 4062 477 3908 3894 480 3858 3477 3591 4166 3276 3556 4920 3905 4858 3830 3818 4040 3940 4995 3900 4971 3860 3824 
1277 2482 218 1297 1035 1863 2989 1276 1936 1058 999 788 1206 1149 576 1090 2933 2363 2710 1445 1409 1396 1318 2592 1400 177 2068 2146 199 2377 1201 1965 3009 971 904 2474 736 1187 882 2842 2539 34 1229 546 1178 766 2671 2897 841 625 1163 1619 1040 2298 872 501 1148 2172 611 603 1603 2379 1134 2185 534 2866 94 1432 2157 2690 869 2649 2605 2677 2330 2195 787 2306 986 1912 891 2829 2431 2371 2981 3047 2144 1628 1485 1680 1307 1913 1597 1866 1683 1715 741 1192 3034 2102 2366 1827 3018 2658 1556 1723 125 3121 2708 2398 1139 803 2166 2876 2892 874 2423 1564 1458 1399 2743 2394 2697 93 1385 110 1465 2370 1707 830 230 148 1966 2082 129 2532 2986 158 2703 9 3107 598 2505 1975 2511 1000 1854 1738 1333 1256 2598 195 2308 2352 2636 123 2153 1700 626 2405 2515 3045 2543 2610 517 930 2252 1644 1544 2393 1147 2602 99 1945 180 2230 789 2077 1879 2927 843 280 2748 1806 1212 3077 2320 2137 1930 537 1140 2734 1071 1198 2131 112 2559 2206 1316 190 3021 1010 1811 2915 670 1222 2256 1003 15 270 1805 2801 2717 750 893 939 2680 3092 955 2315 1989 2181 2376 3105 2806 1193 1496 911 1641 1529 2976 1184 146 1437 1027 1687 2333 2852 2692 2953 1530 1923 876 865 3072 878 2613 178 2555 2704 2318 1091 1022 2568 2426 1369 2347 2214 1730 885 837 667 832 1019 2170 2360 2577 1217 3116 850 1393 2192 2601 659 2862 637 1389 1958 2693 1702 1783 1607 46 938 2223 2731 1413 1263 614 1439 2818 815 4486 3810 3360 3351 3612 4326 4810 3914 4410 3227 3414 3846 4206 3587 3752 4998 4471 4160 4298 4216 3581 3364 3506 4264 4714 3344 4687 4929 3602 392 314 3373 3996 3422 4800 3204 3546 4813 3198 4568 4630 4203 456 3874 4586 4255 4726 3310 4996 3177 3959 3135 3881 3416 3520 4374 4697 4818 4531 3350 338 4604 409 3893 3261 339 4154 3255 4919 3393 3343 3772 4295 4775 4711 4819 4601 3417 3603 4667 4346 359 316 4436 3511 4573 4081 4627 3296 3550 3689 4758 3570 3678 4655 4561 3786 423 3573 3986 332 464 421 4460 3836 3892 4876 4231 3754 426 4530 3273 4115 4390 3334 330 4457 4771 4641 4792 3630 4659 4811 4779 4489 4794 4614 4286 4300 4020 4851 4911 3658 4700 4827 3962 389 4350 384 382 3626 4515 3925 3575 3789 4402 3721 4122 3983 4445 4806 4149 3490 4014 4752 3419 3984 4056 4621 405 4225 439 4511 4728 4245 4345 3492 3257 3989 4308 3812 3437 4385 4684 4117 4804 3404 4197 4740 4062 469 4769 3822 4498 3584 4251 470 3333 4925 3676 4984 3942 4432 4895 3843 488 3306 4693 3451 4938 3841 486 4427 3859 3503 3906 499 498 
2678 2092 2499 2729 155 1211 1432 800 1347 743 2810 1855 1599 2811 642 707 2999 91 563 1213 2076 1710 1205 2804 11 1997 1204 1739 2095 1884 847 2524 2923 145 2137 2256 1831 2983 1901 2409 2420 2335 584 2220 912 1787 1808 2711 138 591 820 1657 1892 2431 2456 2089 2356 958 1227 1909 2682 1496 2681 1057 1390 1551 1351 188 2676 2392 863 3083 1553 272 947 2404 2704 3113 284 130 2251 2653 2310 257 207 567 1643 1698 1079 3056 1033 1395 1587 2070 1969 31 1167 2383 1955 660 833 569 2781 1048 2154 814 918 2487 1328 2361 1814 783 2981 1116 1497 2952 1075 51 263 1763 2074 804 527 2805 77 1889 1978 75 2125 1697 933 231 730 2016 1956 2950 565 2731 2694 2934 1823 55 2394 2627 883 1799 2670 1668 2866 662 2825 2062 695 889 2459 1633 2479 2449 2235 1316 2200 819 772 2497 3073 1966 2855 1612 666 1456 2186 2858 1480 1473 1991 2403 1863 2554 4 2020 521 2755 1570 835 2265 646 1650 1756 211 1796 1664 2912 8 3115 2165 671 654 1982 2121 2768 1623 1957 936 152 2756 2713 3092 3071 989 822 640 2169 2058 2800 2047 1245 741 798 1453 2218 1880 1288 1585 2607 2108 1577 1638 2851 1423 520 1683 849 2754 1091 1662 1896 553 1308 2699 1421 1262 2242 2815 164 1578 1865 2759 951 1923 899 1504 1766 1139 992 2793 1768 1257 1924 594 54 2766 1042 1184 987 633 1605 2835 131 694 1583 2542 1723 1360 2853 1586 1731 1482 704 2651 867 1384 1376 99 2396 2626 2478 529 1910 1404 1563 2377 844 3153 3967 3320 4408 4381 3127 4691 3777 3545 4637 3495 354 4363 3522 4249 3329 3774 3929 4325 4529 3521 4531 442 4382 3995 4859 3914 356 416 4464 4620 4537 4469 4506 3816 4271 3765 4879 4753 3179 338 3691 3637 3736 4573 3793 4623 3454 3932 4662 4525 4009 433 4482 4764 3268 4441 3513 3656 3996 4001 3467 4606 4102 4042 4038 4220 3376 4233 3711 3764 4227 3164 4490 4302 4831 4601 4407 3928 3627 4137 4026 3775 4543 4107 4159 4851 4500 3616 334 4288 3804 4689 4413 3837 321 365 4632 409 3663 3548 4976 4085 4389 4792 4739 4314 3465 4628 390 4629 3581 4055 4219 3396 4108 4687 3388 4199 3510 3321 317 4211 3340 3438 3331 3369 3578 3181 3289 4758 4462 4057 4880 4222 3595 4481 4815 4799 4367 3207 4587 4790 4418 4595 3889 4297 3863 3930 3831 4287 3166 3555 4627 3162 4650 3397 3874 4611 3731 3709 4430 315 3743 3976 3362 3624 4279 3532 3488 3414 4019 3796 305 427 3496 3788 3798 4061 3428 4037 475 3212 4163 3821 4541 476 4926 4173 4114 3453 4901 4142 4971 480 3356 4957 4209 4946 4433 4113 4709 4924 3457 3900 3493 3750 3974 
